565.94	565.38	564.47	563.63	562.84	562.11	561.43	560.79	560.17	559.58	558.98	558.37	557.35	556.31	555.26	554.19	553.10	552	550.88	549.73	548.56	547.37	545.76	544.16	542.59	541.05	539.57	538.16	536.83	535.58	534.42	533.36	532	530.76	529.65	528.68	527.85	527.14	526.56	526.08	525.68	525.35	524.67	524.04	523.45	522.88	522.33	521.78	521.22	520.64	520.02	519.35	518.24	517.10	515.95	514.80	513.66	512.54	511.44	510.37	509.34	508.34	506.99	505.70	504.49	503.36	502.32	501.37	500.50	499.71	498.99	498.33	497.35	496.44	495.62	494.89	494.25	493.71	493.25	492.88	492.58	492.33	491.74	491.22	490.74	490.32	489.95	489.61	489.29	488.98	488.66	488.33	487.59	486.83	486.08	485.34	484.62	483.91	483.23	482.57	481.93	481.32	480.35	479.42	478.55	477.73	476.99	476.31	475.70	475.17	474.71	474.32	473.62	473	472.50	472.11	471.85	471.72	471.71	471.81	472.02	472.32	472.30	472.35	472.45	472.60	472.76	472.93	473.09	473.21	473.29	473.32	472.91	472.45	471.97	471.48	471.01	470.56	470.15	469.81	469.52	469.31	468.81	468.39	468.06	467.84	467.72	467.70	467.75	467.88	468.08	468.31	468.22	468.17	468.18	468.26	468.40	468.63	468.93	469.32	469.78	470.31	470.54	470.83	471.18	471.58	472.03	472.50	472.98	473.46	473.91	474.32	474.31	474.24	474.14	474	473.85	473.70	473.55	473.43	473.35	473.32	472.97	472.70	472.53	472.46	472.50	472.67	472.94	473.31	473.78	474.32	474.55	474.82	475.15	475.52	475.93	476.37	476.83	477.32	477.82	478.32	478.46	478.60	478.75	478.92	479.10	479.32	479.55	479.80	480.06	480.32	480.21	480.09	479.96	479.84	479.72	479.61	479.51	479.43	479.36	479.32	478.94	478.60	478.33	478.13	478.04	478.05	478.19	478.44	478.82	479.32	479.56	479.90	480.33	480.87	481.48	482.17	482.92	483.71	484.51	485.32	485.76	486.18	486.59	486.98	487.37	487.76	488.15	488.54	488.94	489.33	489.35	489.38	489.41	489.47	489.54	489.64	489.77	489.93	490.12	490.33	490.20	490.11	490.07	490.10	490.21	490.42	490.74	491.16	491.69	492.33	492.70	493.16	493.72	494.36	495.09	495.88	496.72	497.59	498.47	499.33	499.80	500.23	500.61	500.95	501.26	501.53	501.77	501.98	502.17	502.34	502.11	501.88	501.66	501.47	501.31	501.20	501.14	501.14	501.21	501.34	501.15	501.03	501	501.05	501.19	501.43	501.78	502.21	502.74	503.34	503.63	503.98	504.39	504.86	505.37	505.93	506.51	507.12	507.73	508.34	508.56	508.77	508.96	509.15	509.34	509.53	509.73	509.93	510.14	510.34	510.17	510	509.83	509.68	509.56	509.46	509.38	509.34	509.33	509.34	509.01	508.73	508.50	508.34	508.26	508.28	508.40	508.61	508.93	509.34	509.46	509.66	509.94	510.30	510.72	511.20	511.72	512.26	512.81	513.34	513.47	513.56	513.62	513.64	513.63	513.60	513.55	513.49	513.42	513.34	512.89	512.46	512.07	511.73	511.45	511.26	511.15	511.13	511.20	511.34	511.19	511.11	511.12	511.21	511.39	511.64	511.98	512.38	512.84	513.34	513.50	513.70	513.92	514.19	514.49	514.82	515.18	515.56	515.95	516.35	516.35	516.35	516.34	516.34	516.33	516.33	516.34	516.34	516.35	516.35	515.97	515.59	515.24	514.93	514.66	514.45	514.31	514.25	514.26	514.34	514.13	514	513.96	514.03	514.20	514.46	514.82	515.27	515.78	516.35	516.57	516.82	517.11	517.41	517.73	518.07	518.40	518.74	519.05	519.35	519.24	519.11	518.97	518.84	518.71	518.60	518.50	518.43	518.38	518.35	517.96	517.59	517.26	516.98	516.74	516.56	516.43	516.36	516.33	516.35	516.03	515.76	515.56	515.44	515.39	515.42	515.54	515.74	516.01	516.35	516.36	516.43	516.56	516.74	516.96	517.22	517.50	517.79	518.08	518.35	518.21	518.05	517.87	517.67	517.46	517.24	517.02	516.80	516.57	516.35	515.75	515.17	514.61	514.10	513.65	513.25	512.92	512.66	512.47	512.34	511.92	511.58	511.33	511.19	511.15	511.22	511.39	511.64	511.97	512.34	512.38	512.43	512.50	512.57	512.63	512.66	512.65	512.60	512.50	512.34	511.76	511.14	510.52	509.90	509.32	508.78	508.31	507.91	507.59	507.34	506.78	506.30	505.89	505.55	505.26	505.02	504.82	504.65	504.49	504.34	503.82	503.34	502.90	502.52	502.23	502.03	501.94	501.97	502.10	502.34	502.29	502.32	502.43	502.59	502.78	502.98	503.16	503.29	503.36	503.34	502.85	502.29	501.66	500.98	500.29	499.60	498.94	498.33	497.79	497.33	496.59	495.95	495.42	495.01	494.71	494.51	494.39	494.33	494.32	494.33	493.98	493.64	493.32	493.03	492.78	492.57	492.41	492.32	492.29	492.33	492.06	491.86	491.74	491.70	491.72	491.80	491.92	492.06	492.20	492.33	492.05	491.75	491.42	491.07	490.73	490.39	490.07	489.78	489.53	489.33	488.81	488.36	488.01	487.76	487.61	487.57	487.63	487.79	488.02	488.33	488.31	488.35	488.43	488.58	488.77	489.01	489.29	489.61	489.96	490.33	490.34	490.37	490.43	490.51	490.62	490.74	490.88	491.04	491.19	491.33	491.09	490.83	490.58	490.33	490.10	489.89	489.70	489.55	489.42	489.33	488.90	488.52	488.20	487.96	487.79	487.72	487.74	487.85	488.05	488.33	488.31	488.36	488.50	488.72	489.02	489.39	489.82	490.29	490.80	491.33	491.48	491.63	491.77	491.90	492.02	492.12	492.20	492.26	492.31	492.33	491.97	491.60	491.24	490.92	490.65	490.44	490.30	490.23	490.25	490.33	490.11	489.97	489.90	489.91	490	490.16	490.38	490.65	490.97	491.33	491.34	491.38	491.45	491.57	491.73	491.95	492.22	492.54	492.92	493.33	493.41	493.53	493.68	493.87	494.09	494.33	494.59	494.85	495.10	495.33	495.16	494.95	494.73	494.49	494.25	494.01	493.79	493.60	493.44	493.33	492.90	492.53	492.25	492.07	492	492.04	492.20	492.48	492.86	493.33	493.50	493.75	494.06	494.43	494.85	495.31	495.80	496.31	496.83	497.33	497.45	497.55	497.64	497.72	497.81	497.89	497.99	498.10	498.21	498.33	498.08	497.84	497.63	497.44	497.30	497.20	497.16	497.17	497.23	497.33	497.10	496.92	496.81	496.76	496.81	496.93	497.15	497.47	497.86	498.33	498.48	498.70	498.97	499.32	499.72	500.18	500.68	501.22	501.78	502.34	502.49	502.62	502.73	502.83	502.92	503	503.08	503.17	503.25	503.34	503.03	502.73	502.45	502.22	502.05	501.95	501.93	501.99	502.12	502.34	502.21	502.15	502.15	502.24	502.41	502.65	502.98	503.37	503.83	504.34	504.47	504.64	504.85	505.09	505.37	505.70	506.07	506.47	506.90	507.34	507.38	507.42	507.46	507.51	507.59	507.68	507.80	507.95	508.13	508.34	508.17	508.03	507.94	507.93	508.02	508.21	508.53	508.99	509.59	510.34	510.82	511.45	512.24	513.20	514.33	515.63	517.10	518.72	520.48	522.35	523.91	525.54	527.24	529	530.82	532.68	534.58	536.50	538.43	540.36	541.87	543.36	544.83	546.31	547.78	549.27	550.77	552.29	553.83	555.37	556.52	557.67	558.85	560.06	561.32	562.62	563.97	565.38	566.86	568.38	569.55	570.77	572.07	573.43	574.89	576.43	578.06	579.77	581.55	583.39	584.87	586.37	587.90	589.45	591.01	592.55	594.08	595.58	597.02	598.40	599.30	600.11	600.84	601.49	602.09	602.63	603.12	603.58	604.01	604.40	604.38	604.35	604.32	604.32	604.36	604.45	604.59	604.80	605.07	605.40	605.39	605.44	605.56	605.75	606.02	606.37	606.79	607.28	607.82	608.41	608.62	608.85	609.10	609.34	609.59	609.83	610.04	610.22	610.34	610.41	610.01	609.54	609.01	608.43	607.81	607.16	606.48	605.79	605.10	604.40	603.32	602.27	601.25	600.30	599.42	598.63	597.93	597.33	596.82	596.40	595.67	595.04	594.52	594.10	593.78	593.56	593.42	593.37	593.36	593.40	593.05	592.71	592.38	592.04	591.69	591.31	590.90	590.45	589.95	589.39	588.38	587.33	586.27	585.20	584.14	583.11	582.11	581.16	580.25	579.39	578.17	577.02	575.94	574.93	574.01	573.16	572.37	571.66	570.99	570.38	569.41	568.51	567.68	566.94	566.29	565.74	565.28	564.91	564.61	564.38	563.79	563.26	562.77	562.31	561.88	561.44	560.99	560.51	559.97	559.37	558.30	557.18	556.03	554.86	553.69	552.53	551.41	550.34	549.32	548.37	547.08	545.89	544.81	543.86	543.02	542.30	541.68	541.17	540.73	540.36	539.65	539	538.44	537.94	537.53	537.18	536.90	536.68	536.50	536.36	535.83	535.33	534.86	534.40	533.95	533.49	533.02	532.51	531.96	531.36	530.30	529.22	528.12	527.03	525.95	524.92	523.93	523	522.14	521.35	520.23	519.21	518.28	517.46	516.75	516.13	515.59	515.12	514.71	514.34	513.61	512.92	512.29	511.71	511.18	510.72	510.31	509.95	509.63	509.34	508.68	508.04	507.44	506.85	506.28	505.71	505.14	504.56	503.96	503.34	502.30	501.26	500.25	499.28	498.38	497.56	496.83	496.22	495.72	495.33	494.66	494.12	493.70	493.39	493.20	493.11	493.09	493.13	493.22	493.33	493.06	492.82	492.60	492.42	492.27	492.18	492.14	492.16	492.22	492.33	492.09	491.89	491.74	491.63	491.56	491.51	491.47	491.43	491.39	491.33	490.86	490.39	489.92	489.49	489.11	488.79	488.54	488.38	488.31	488.33	488.05	487.87	487.78	487.80	487.90	488.08	488.33	488.63	488.97	489.33	489.32	489.33	489.38	489.48	489.62	489.83	490.11	490.45	490.86	491.33	491.46	491.63	491.85	492.09	492.35	492.61	492.85	493.06	493.23	493.33	492.99	492.60	492.18	491.75	491.34	490.96	490.66	490.44	490.32	490.33	490.08	489.98	490.04	490.25	490.63	491.15	491.80	492.57	493.42	494.33	494.91	495.50	496.12	496.74	497.37	497.99	498.60	499.20	499.78	500.33	500.49	500.61	500.72	500.82	500.91	501	501.09	501.18	501.26	501.34	501.04	500.74	500.47	500.24	500.06	499.95	499.91	499.96	500.10	500.33	500.29	500.34	500.51	500.78	501.16	501.64	502.22	502.87	503.59	504.34	504.74	505.16	505.59	506.02	506.45	506.87	507.27	507.66	508.01	508.34	508.26	508.16	508.04	507.91	507.78	507.66	507.56	507.47	507.40	507.34	506.93	506.55	506.20	505.90	505.65	505.46	505.34	505.28	505.28	505.34	505.09	504.90	504.79	504.77	504.83	504.98	505.21	505.52	505.90	506.34	506.45	506.60	506.79	507.01	507.25	507.49	507.74	507.97	508.18	508.34	508.08	507.77	507.42	507.03	506.61	506.16	505.71	505.25	504.79	504.34	503.53	502.75	502.02	501.35	500.77	500.28	499.89	499.60	499.42	499.33	498.98	498.72	498.58	498.55	498.63	498.81	499.09	499.44	499.87	500.33	500.46	500.59	500.74	500.89	501.03	501.15	501.25	501.32	501.35	501.34	500.90	500.44	499.96	499.48	499.01	498.58	498.19	497.85	497.56	497.33	496.79	496.31	495.91	495.58	495.35	495.19	495.12	495.12	495.19	495.33	495.15	495.04	495.01	495.07	495.22	495.47	495.81	496.24	496.76	497.33	497.59	497.88	498.21	498.56	498.92	499.27	499.61	499.90	500.15	500.33	500.08	499.77	499.43	499.06	498.69	498.34	498.01	497.73	497.50	497.33	496.85	496.44	496.11	495.88	495.74	495.69	495.73	495.85	496.06	496.33	496.30	496.35	496.48	496.72	497.07	497.52	498.09	498.76	499.51	500.33	500.83	501.36	501.91	502.44	502.95	503.41	503.79	504.08	504.27	504.34	503.92	503.41	502.82	502.20	501.57	500.96	500.41	499.95	499.58	499.33	498.84	498.49	498.29	498.23	498.32	498.54	498.87	499.29	499.79	500.33	500.55	500.79	501.07	501.39	501.76	502.18	502.65	503.17	503.74	504.34	504.60	504.87	505.16	505.45	505.73	505.97	506.17	506.31	506.37	506.34	505.86	505.32	504.72	504.10	503.49	502.91	502.38	501.94	501.58	501.34	500.83	500.45	500.20	500.08	500.07	500.18	500.38	500.65	500.97	501.34	501.35	501.40	501.47	501.59	501.74	501.95	502.22	502.54	502.92	503.34	503.43	503.56	503.72	503.89	504.07	504.23	504.35	504.42	504.42	504.34	503.81	503.20	502.54	501.84	501.14	500.46	499.81	499.23	498.74	498.33	497.67	497.13	496.73	496.47	496.34	496.34	496.46	496.68	496.98	497.33	497.37	497.44	497.56	497.72	497.91	498.14	498.41	498.71	499.02	499.33	499.28	499.22	499.14	499.04	498.90	498.72	498.48	498.18	497.80	497.33	496.42	495.45	494.43	493.40	492.39	491.41	490.49	489.66	488.94	488.33	487.47	486.76	486.21	485.81	485.57	485.48	485.53	485.70	485.98	486.33	486.37	486.46	486.60	486.79	487.01	487.26	487.53	487.81	488.08	488.33	488.17	487.96	487.71	487.41	487.05	486.63	486.15	485.60	484.99	484.32	483.24	482.14	481.05	480.01	479.05	478.20	477.49	476.92	476.53	476.32	475.91	475.68	475.64	475.78	476.09	476.55	477.12	477.80	478.54	479.32	479.74	480.17	480.60	481.02	481.43	481.84	482.23	482.61	482.98	483.32	483.27	483.21	483.12	483.04	482.94	482.84	482.73	482.61	482.47	482.32	481.79	481.25	480.73	480.26	479.85	479.52	479.29	479.18	479.18	479.32	479.22	479.25	479.44	479.77	480.25	480.87	481.61	482.44	483.36	484.32	484.94	485.58	486.22	486.86	487.50	488.12	488.72	489.29	489.83	490.33	490.41	490.46	490.47	490.47	490.46	490.44	490.41	490.39	490.36	490.33	489.92	489.53	489.15	488.82	488.54	488.32	488.18	488.13	488.18	488.33	488.21	488.21	488.35	488.64	489.07	489.66	490.39	491.26	492.25	493.33	494.11	494.94	495.81	496.70	497.59	498.46	499.29	500.06	500.75	501.34	501.45	501.45	501.36	501.19	500.95	500.65	500.33	499.99	499.65	499.33	498.68	498.07	497.55	497.12	496.82	496.64	496.61	496.71	496.96	497.33	497.46	497.70	498.07	498.55	499.14	499.84	500.62	501.48	502.39	503.34	503.92	504.51	505.09	505.66	506.21	506.72	507.20	507.64	508.02	508.34	508.23	508.05	507.84	507.60	507.35	507.10	506.86	506.65	506.48	506.34	505.87	505.46	505.12	504.87	504.70	504.63	504.67	504.80	505.03	505.34	505.36	505.46	505.65	505.93	506.30	506.76	507.31	507.93	508.61	509.34	509.72	510.13	510.55	510.98	511.41	511.84	512.26	512.65	513.02	513.34	513.25	513.12	512.97	512.81	512.65	512.52	512.41	512.35	512.32	512.34	512.03	511.78	511.58	511.47	511.43	511.46	511.58	511.77	512.03	512.34	512.33	512.38	512.49	512.68	512.94	513.29	513.70	514.19	514.75	515.34	515.60	515.88	516.19	516.52	516.86	517.19	517.52	517.83	518.11	518.35	518.16	517.93	517.67	517.40	517.14	516.89	516.68	516.52	516.40	516.35	515.96	515.65	515.42	515.28	515.24	515.30	515.44	515.67	515.98	516.35	516.38	516.47	516.62	516.83	517.11	517.44	517.85	518.30	518.81	519.35	519.52	519.71	519.92	520.14	520.37	520.60	520.82	521.03	521.21	521.35	521.05	520.72	520.35	519.98	519.62	519.27	518.96	518.69	518.49	518.35	517.88	517.48	517.19	517.01	516.95	517	517.18	517.47	517.86	518.35	518.50	518.72	519	519.35	519.75	520.21	520.71	521.24	521.79	522.35	522.49	522.62	522.74	522.85	522.95	523.05	523.14	523.22	523.29	523.35	522.99	522.63	522.28	521.95	521.68	521.46	521.31	521.24	521.26	521.35	521.11	520.96	520.90	520.94	521.09	521.34	521.70	522.16	522.72	523.35	523.64	524	524.43	524.93	525.51	526.15	526.87	527.65	528.48	529.35	529.85	530.36	530.90	531.47	532.07	532.69	533.33	533.99	534.67	535.36	535.64	535.94	536.27	536.64	537.06	537.55	538.12	538.78	539.53	540.36	540.88	541.50	542.22	543.06	544.01	545.08	546.26	547.54	548.92	550.37	551.48	552.64	553.85	555.12	556.43	557.78	559.16	560.56	561.97	563.38	564.37	565.34	566.30	567.23	568.15	569.06	569.94	570.79	571.61	572.38	572.72	573.02	573.29	573.55	573.81	574.07	574.35	574.66	575.01	575.38	575.41	575.50	575.66	575.91	576.26	576.70	577.25	577.89	578.60	579.39	579.83	580.32	580.84	581.38	581.94	582.50	583.04	583.54	584	584.39	584.32	584.18	583.97	583.71	583.40	583.05	582.66	582.25	581.83	581.39	580.56	579.76	578.98	578.26	577.59	577	576.49	576.05	575.68	575.38	574.77	574.22	573.75	573.35	573.03	572.79	572.61	572.49	572.42	572.38	571.99	571.63	571.30	571	570.73	570.47	570.22	569.97	569.69	569.38	568.65	567.87	567.05	566.19	565.30	564.37	563.41	562.42	561.41	560.37	558.96	557.56	556.21	554.93	553.73	552.64	551.65	550.78	550.02	549.37	548.42	547.57	546.83	546.17	545.59	545.08	544.62	544.19	543.77	543.36	542.56	541.77	540.99	540.24	539.52	538.83	538.18	537.55	536.95	536.36	535.39	534.42	533.47	532.52	531.56	530.59	529.59	528.55	527.47	526.35	524.80	523.24	521.70	520.19	518.76	517.42	516.20	515.10	514.15	513.34	512.30	511.42	510.71	510.17	509.78	509.53	509.38	509.32	509.32	509.34	508.97	508.61	508.24	507.87	507.48	507.09	506.68	506.26	505.81	505.34	504.45	503.55	502.65	501.75	500.85	499.95	499.06	498.16	497.25	496.33	495.01	493.71	492.45	491.25	490.13	489.11	488.21	487.44	486.81	486.33	485.60	485.05	484.68	484.49	484.47	484.62	484.90	485.30	485.78	486.33	486.51	486.71	486.91	487.10	487.27	487.40	487.48	487.51	487.46	487.33	486.73	486.07	485.36	484.62	483.86	483.10	482.35	481.63	480.95	480.32	479.38	478.53	477.80	477.22	476.79	476.55	476.48	476.59	476.87	477.32	477.53	477.88	478.38	479	479.73	480.56	481.45	482.40	483.36	484.32	484.88	485.41	485.91	486.38	486.81	487.20	487.55	487.86	488.12	488.33	488.10	487.83	487.52	487.19	486.86	486.52	486.19	485.88	485.59	485.32	484.72	484.18	483.72	483.37	483.14	483.06	483.13	483.36	483.76	484.32	484.66	485.15	485.80	486.59	487.51	488.55	489.68	490.88	492.10	493.33	494.15	494.92	495.63	496.27	496.84	497.31	497.70	498	498.21	498.33	498.01	497.63	497.21	496.79	496.39	496.04	495.74	495.52	495.38	495.33	495	494.78	494.66	494.68	494.81	495.08	495.47	495.99	496.61	497.33	497.77	498.29	498.91	499.61	500.40	501.27	502.22	503.22	504.27	505.34	506.03	506.72	507.37	508	508.57	509.09	509.53	509.89	510.17	510.34	510.05	509.67	509.23	508.74	508.24	507.75	507.29	506.89	506.57	506.34	505.84	505.47	505.25	505.18	505.29	505.57	506.03	506.65	507.43	508.34	509	509.77	510.64	511.60	512.64	513.74	514.88	516.05	517.21	518.35	519.06	519.70	520.27	520.74	521.11	521.38	521.54	521.59	521.52	521.35	520.71	519.99	519.24	518.47	517.73	517.04	516.43	515.94	515.57	515.34	514.90	514.62	514.52	514.60	514.86	515.29	515.87	516.60	517.43	518.35	518.96	519.62	520.32	521.05	521.80	522.55	523.30	524.02	524.71	525.35	525.56	525.71	525.78	525.79	525.74	525.61	525.41	525.13	524.78	524.35	523.49	522.58	521.64	520.71	519.80	518.94	518.15	517.44	516.84	516.35	515.60	514.99	514.53	514.22	514.07	514.07	514.22	514.49	514.87	515.34	515.52	515.75	516.04	516.36	516.72	517.09	517.46	517.80	518.11	518.35	518.14	517.85	517.46	516.99	516.43	515.78	515.03	514.21	513.31	512.34	510.96	509.56	508.18	506.84	505.59	504.45	503.44	502.58	501.88	501.34	500.58	500	499.58	499.33	499.23	499.27	499.42	499.66	499.98	500.33	500.35	500.39	500.45	500.54	500.65	500.77	500.91	501.06	501.20	501.34	501.08	500.79	500.49	500.16	499.80	499.40	498.96	498.47	497.93	497.33	496.32	495.29	494.26	493.26	492.32	491.47	490.72	490.11	489.64	489.33	488.80	488.45	488.28	488.30	488.49	488.84	489.32	489.92	490.60	491.33	491.71	492.09	492.48	492.85	493.20	493.51	493.79	494.02	494.20	494.33	494.03	493.68	493.31	492.91	492.49	492.07	491.64	491.21	490.77	490.33	489.51	488.69	487.91	487.17	486.48	485.86	485.33	484.89	484.55	484.32	483.84	483.50	483.30	483.28	483.41	483.72	484.18	484.78	485.51	486.33	486.84	487.41	488.01	488.62	489.22	489.79	490.30	490.74	491.09	491.33	491.09	490.74	490.31	489.80	489.25	488.66	488.05	487.45	486.87	486.33	485.46	484.66	483.95	483.35	482.86	482.50	482.27	482.17	482.19	482.32	482.20	482.20	482.31	482.55	482.92	483.40	484	484.70	485.48	486.33	486.85	487.41	487.99	488.58	489.16	489.71	490.22	490.67	491.05	491.33	491.15	490.88	490.53	490.12	489.67	489.19	488.70	488.21	487.75	487.33	486.58	485.89	485.29	484.79	484.41	484.14	484	483.99	484.10	484.32	484.29	484.38	484.59	484.93	485.40	485.99	486.69	487.49	488.38	489.33	489.94	490.58	491.22	491.84	492.44	492.98	493.46	493.85	494.15	494.33	494.03	493.63	493.15	492.60	492.02	491.42	490.84	490.28	489.77	489.33	488.59	487.95	487.42	487.01	486.74	486.60	486.60	486.73	486.97	487.33	487.41	487.58	487.86	488.24	488.71	489.29	489.95	490.68	491.49	492.33	492.83	493.34	493.86	494.36	494.84	495.28	495.67	495.98	496.20	496.33	495.99	495.56	495.05	494.49	493.90	493.31	492.73	492.19	491.72	491.33	490.66	490.11	489.70	489.44	489.35	489.43	489.67	490.08	490.64	491.33	491.76	492.30	492.94	493.68	494.50	495.39	496.33	497.32	498.33	499.33	499.95	500.53	501.08	501.59	502.04	502.44	502.77	503.04	503.23	503.34	503	502.59	502.14	501.66	501.18	500.71	500.28	499.90	499.58	499.33	498.79	498.35	498.01	497.80	497.72	497.78	497.98	498.31	498.76	499.33	499.63	500.04	500.54	501.15	501.86	502.65	503.51	504.43	505.38	506.34	506.91	507.45	507.95	508.39	508.76	509.06	509.27	509.39	509.41	509.34	508.81	508.21	507.57	506.92	506.29	505.71	505.20	504.80	504.51	504.34	503.92	503.65	503.52	503.55	503.72	504.03	504.47	505.01	505.64	506.34	506.71	507.11	507.55	508.02	508.53	509.06	509.62	510.19	510.77	511.34	511.53	511.71	511.87	512.01	512.14	512.24	512.32	512.36	512.37	512.34	511.90	511.44	510.98	510.54	510.13	509.79	509.53	509.36	509.30	509.34	509.12	509.02	509.05	509.21	509.49	509.89	510.39	510.98	511.64	512.34	512.70	513.07	513.46	513.87	514.28	514.71	515.13	515.55	515.96	516.35	516.33	516.30	516.24	516.16	516.07	515.97	515.84	515.70	515.53	515.34	514.76	514.18	513.60	513.06	512.57	512.14	511.80	511.54	511.39	511.34	511.02	510.82	510.75	510.80	510.97	511.27	511.67	512.16	512.73	513.34	513.62	513.91	514.23	514.56	514.89	515.22	515.54	515.84	516.11	516.35	516.16	515.93	515.67	515.38	515.07	514.74	514.40	514.06	513.70	513.34	512.61	511.89	511.20	510.55	509.98	509.47	509.05	508.73	508.49	508.34	507.90	507.56	507.33	507.20	507.17	507.25	507.42	507.66	507.98	508.34	508.36	508.41	508.49	508.59	508.72	508.85	508.99	509.13	509.25	509.34	509.02	508.67	508.29	507.89	507.48	507.06	506.63	506.20	505.77	505.34	504.54	503.76	503.03	502.37	501.78	501.28	500.89	500.59	500.41	500.33	499.98	499.73	499.59	499.57	499.66	499.85	500.12	500.48	500.89	501.34	501.42	501.51	501.62	501.73	501.84	501.96	502.07	502.17	502.26	502.34	502.01	501.68	501.37	501.08	500.82	500.61	500.46	500.36	500.32	500.33	500.01	499.75	499.55	499.43	499.39	499.43	499.55	499.74	500.01	500.33	500.33	500.38	500.49	500.69	500.95	501.30	501.72	502.20	502.75	503.34	503.56	503.81	504.09	504.39	504.71	505.04	505.38	505.71	506.04	506.34	506.22	506.08	505.92	505.76	505.62	505.49	505.39	505.33	505.32	505.34	505.01	504.73	504.52	504.38	504.32	504.35	504.48	504.68	504.97	505.34	505.38	505.48	505.67	505.93	506.29	506.74	507.27	507.89	508.58	509.34	509.76	510.23	510.75	511.32	511.94	512.59	513.26	513.96	514.66	515.34	515.62	515.88	516.13	516.38	516.63	516.90	517.20	517.53	517.91	518.35	518.45	518.63	518.91	519.29	519.80	520.45	521.23	522.14	523.19	524.35	525.23	526.20	527.27	528.42	529.65	530.94	532.27	533.63	535	536.36	537.31	538.22	539.09	539.93	540.74	541.52	542.27	542.99	543.69	544.36	544.64	544.92	545.21	545.52	545.88	546.28	546.74	547.24	547.79	548.37	548.59	548.83	549.10	549.39	549.69	550.01	550.34	550.68	551.02	551.37	551.35	551.34	551.37	551.45	551.60	551.81	552.11	552.47	552.89	553.37	553.51	553.67	553.85	554.03	554.21	554.35	554.45	554.50	554.48	554.37	553.82	553.19	552.52	551.83	551.14	550.47	549.85	549.28	548.78	548.37	547.66	547.05	546.54	546.14	545.84	545.63	545.49	545.41	545.38	545.36	544.99	544.62	544.27	543.94	543.62	543.33	543.06	542.81	542.58	542.36	541.78	541.20	540.63	540.06	539.50	538.93	538.34	537.73	537.07	536.36	535.22	534.05	532.85	531.65	530.47	529.32	528.21	527.18	526.22	525.35	524.20	523.17	522.26	521.49	520.86	520.36	519.97	519.69	519.49	519.35	518.86	518.41	517.99	517.59	517.21	516.84	516.48	516.11	515.73	515.34	514.56	513.78	513.01	512.26	511.54	510.85	510.19	509.55	508.94	508.34	507.37	506.42	505.50	504.61	503.77	502.98	502.23	501.54	500.91	500.33	499.44	498.62	497.91	497.32	496.85	496.51	496.29	496.20	496.22	496.33	496.14	496.02	495.97	495.98	496.03	496.10	496.19	496.26	496.32	496.33	495.92	495.48	495.02	494.56	494.11	493.68	493.28	492.92	492.60	492.33	491.72	491.18	490.70	490.30	489.98	489.74	489.56	489.43	489.36	489.33	488.94	488.60	488.31	488.08	487.93	487.85	487.85	487.93	488.09	488.33	488.25	488.25	488.32	488.47	488.69	488.96	489.28	489.63	489.98	490.33	490.27	490.20	490.11	490	489.89	489.77	489.65	489.54	489.43	489.33	488.86	488.43	488.04	487.71	487.46	487.27	487.17	487.15	487.20	487.33	487.14	487.04	487.02	487.08	487.24	487.50	487.84	488.26	488.76	489.33	489.57	489.86	490.21	490.60	491.03	491.49	491.96	492.44	492.90	493.33	493.35	493.32	493.26	493.16	493.04	492.90	492.74	492.59	492.45	492.33	491.87	491.47	491.15	490.93	490.84	490.87	491.04	491.35	491.78	492.33	492.60	492.97	493.41	493.91	494.46	495.04	495.64	496.23	496.80	497.33	497.46	497.54	497.60	497.65	497.71	497.77	497.86	497.98	498.14	498.33	498.19	498.09	498.02	498	498.02	498.06	498.13	498.20	498.27	498.33	498.01	497.67	497.34	497.02	496.74	496.51	496.34	496.25	496.25	496.33	496.15	496.07	496.11	496.27	496.55	496.94	497.44	498.01	498.65	499.33	499.67	500.01	500.36	500.70	501.04	501.36	501.65	501.92	502.15	502.34	502.11	501.85	501.55	501.24	500.91	500.58	500.25	499.93	499.63	499.33	498.70	498.09	497.55	497.07	496.68	496.39	496.21	496.14	496.18	496.33	496.22	496.21	496.31	496.52	496.83	497.22	497.69	498.21	498.76	499.33	499.53	499.71	499.88	500.02	500.14	500.23	500.30	500.34	500.35	500.33	499.92	499.50	499.09	498.69	498.34	498.02	497.76	497.56	497.42	497.33	496.93	496.58	496.30	496.09	495.95	495.89	495.90	495.98	496.13	496.33	496.22	496.17	496.18	496.27	496.44	496.69	497.02	497.41	497.85	498.33	498.47	498.61	498.76	498.92	499.06	499.19	499.29	499.35	499.37	499.33	498.88	498.38	497.87	497.36	496.87	496.42	496.03	495.72	495.48	495.33	494.90	494.56	494.33	494.21	494.19	494.27	494.45	494.69	494.99	495.33	495.32	495.32	495.35	495.40	495.48	495.58	495.72	495.89	496.10	496.33	496.22	496.15	496.12	496.15	496.23	496.37	496.55	496.79	497.05	497.33	497.25	497.18	497.12	497.08	497.06	497.07	497.10	497.15	497.23	497.33	497.08	496.86	496.69	496.57	496.51	496.53	496.62	496.79	497.03	497.33	497.32	497.38	497.51	497.72	498	498.36	498.78	499.26	499.78	500.33	500.53	500.72	500.93	501.14	501.35	501.56	501.77	501.97	502.16	502.34	502.13	501.94	501.76	501.63	501.56	501.55	501.62	501.78	502.02	502.34	502.35	502.43	502.59	502.82	503.12	503.48	503.90	504.35	504.84	505.34	505.48	505.63	505.81	506.03	506.28	506.59	506.95	507.36	507.83	508.34	508.51	508.72	508.97	509.26	509.58	509.92	510.28	510.64	511	511.34	511.28	511.21	511.13	511.05	510.99	510.97	510.98	511.05	511.17	511.34	511.20	511.13	511.13	511.22	511.39	511.65	511.98	512.38	512.84	513.34	513.50	513.69	513.91	514.17	514.47	514.79	515.15	515.53	515.94	516.35	516.38	516.41	516.45	516.48	516.51	516.52	516.53	516.50	516.44	516.35	515.83	515.28	514.70	514.12	513.54	512.99	512.49	512.03	511.65	511.34	510.75	510.27	509.91	509.69	509.62	509.70	509.93	510.29	510.77	511.34	511.62	511.97	512.36	512.80	513.26	513.72	514.18	514.61	515	515.34	515.25	515.11	514.92	514.70	514.46	514.21	513.97	513.74	513.53	513.34	512.82	512.34	511.92	511.58	511.32	511.15	511.07	511.08	511.17	511.34	511.21	511.14	511.15	511.25	511.43	511.68	512.01	512.40	512.85	513.34	513.49	513.66	513.86	514.08	514.31	514.55	514.79	515.01	515.20	515.34	515.07	514.74	514.38	513.98	513.56	513.12	512.68	512.23	511.78	511.34	510.54	509.77	509.06	508.41	507.83	507.35	506.96	506.66	506.46	506.34	505.93	505.61	505.39	505.27	505.24	505.31	505.47	505.70	505.99	506.34	506.34	506.38	506.44	506.54	506.66	506.80	506.94	507.09	507.22	507.34	507.05	506.74	506.42	506.10	505.78	505.46	505.16	504.87	504.60	504.34	503.71	503.11	502.54	502.03	501.57	501.18	500.86	500.61	500.44	500.33	499.92	499.59	499.35	499.21	499.17	499.23	499.39	499.63	499.96	500.33	500.37	500.44	500.54	500.67	500.80	500.94	501.07	501.19	501.28	501.34	500.98	500.59	500.20	499.81	499.45	499.12	498.84	498.61	498.44	498.33	497.90	497.53	497.24	497.04	496.91	496.86	496.89	496.98	497.14	497.33	497.18	497.07	497.01	497.01	497.07	497.19	497.38	497.64	497.96	498.33	498.37	498.44	498.57	498.73	498.94	499.19	499.46	499.75	500.05	500.33	500.23	500.12	500.01	499.92	499.86	499.84	499.87	499.96	500.11	500.33	500.24	500.22	500.29	500.45	500.72	501.08	501.53	502.07	502.67	503.34	503.66	504.02	504.43	504.87	505.36	505.89	506.46	507.06	507.69	508.34	508.62	508.91	509.22	509.57	509.94	510.36	510.81	511.29	511.80	512.34	512.52	512.73	512.98	513.28	513.64	514.06	514.54	515.09	515.69	516.35	516.66	517.01	517.41	517.86	518.35	518.89	519.46	520.07	520.70	521.35	521.62	521.89	522.19	522.52	522.89	523.29	523.74	524.24	524.78	525.35	525.56	525.79	526.04	526.33	526.64	526.97	527.32	527.67	528.02	528.35	528.26	528.15	528.01	527.86	527.72	527.59	527.48	527.40	527.36	527.35	526.99	526.68	526.44	526.28	526.21	526.24	526.38	526.62	526.94	527.35	527.43	527.56	527.76	528.01	528.32	528.67	529.07	529.49	529.92	530.35	530.38	530.38	530.37	530.35	530.33	530.31	530.31	530.31	530.33	530.35	530	529.67	529.38	529.15	528.98	528.89	528.89	528.96	529.12	529.35	529.25	529.21	529.24	529.34	529.51	529.75	530.06	530.43	530.87	531.36	531.50	531.69	531.96	532.30	532.74	533.27	533.90	534.62	535.45	536.36	536.96	537.63	538.38	539.21	540.11	541.07	542.09	543.15	544.25	545.36	546.10	546.85	547.63	548.44	549.29	550.19	551.15	552.16	553.24	554.37	555.17	556.04	556.98	557.99	559.09	560.25	561.47	562.75	564.05	565.38	566.32	567.26	568.19	569.13	570.05	570.96	571.86	572.73	573.58	574.38	574.77	575.12	575.45	575.76	576.06	576.35	576.63	576.90	577.16	577.39	577.21	577.02	576.81	576.60	576.40	576.19	575.99	575.79	575.59	575.38	574.79	574.20	573.62	573.06	572.54	572.04	571.58	571.15	570.76	570.38	569.65	568.94	568.27	567.64	567.04	566.48	565.94	565.42	564.90	564.38	563.45	562.51	561.55	560.58	559.59	558.59	557.56	556.52	555.46	554.37	552.89	551.41	549.95	548.53	547.15	545.84	544.60	543.44	542.36	541.36	540.06	538.85	537.74	536.73	535.82	535	534.25	533.58	532.95	532.36	531.39	530.45	529.52	528.60	527.70	526.81	525.93	525.06	524.20	523.35	522.13	520.95	519.83	518.78	517.81	516.94	516.16	515.47	514.87	514.34	513.49	512.72	512.01	511.36	510.77	510.23	509.73	509.25	508.79	508.34	507.50	506.68	505.90	505.18	504.51	503.92	503.40	502.97	502.62	502.34	501.73	501.21	500.76	500.40	500.12	499.89	499.71	499.57	499.45	499.33	498.82	498.31	497.81	497.34	496.90	496.50	496.14	495.83	495.56	495.33	494.75	494.23	493.78	493.39	493.08	492.83	492.64	492.50	492.40	492.33	491.89	491.48	491.11	490.80	490.55	490.36	490.25	490.21	490.23	490.33	490.10	489.95	489.88	489.89	489.99	490.16	490.39	490.68	491	491.33	491.28	491.24	491.20	491.17	491.16	491.16	491.17	491.21	491.26	491.33	491.04	490.78	490.59	490.45	490.40	490.42	490.53	490.72	490.99	491.33	491.35	491.43	491.58	491.80	492.09	492.44	492.85	493.31	493.80	494.33	494.50	494.69	494.91	495.16	495.45	495.77	496.12	496.50	496.91	497.33	497.39	497.47	497.58	497.72	497.89	498.11	498.36	498.66	498.98	499.33	499.34	499.37	499.44	499.55	499.72	499.94	500.21	500.54	500.92	501.34	501.42	501.55	501.74	501.97	502.26	502.60	502.99	503.42	503.87	504.34	504.44	504.53	504.63	504.73	504.83	504.93	505.04	505.14	505.24	505.34	505.06	504.80	504.55	504.35	504.20	504.10	504.07	504.10	504.19	504.34	504.16	504.02	503.93	503.88	503.88	503.92	503.99	504.08	504.20	504.34	504.12	503.92	503.75	503.64	503.58	503.59	503.68	503.83	504.05	504.34	504.30	504.31	504.37	504.47	504.60	504.75	504.91	505.07	505.21	505.34	505.07	504.77	504.48	504.19	503.92	503.69	503.51	503.39	503.33	503.34	503.03	502.80	502.64	502.56	502.56	502.62	502.74	502.91	503.11	503.34	503.20	503.08	502.98	502.91	502.87	502.87	502.92	503.02	503.16	503.34	503.18	503.07	503	502.97	502.98	503.02	503.09	503.17	503.26	503.34	503.03	502.72	502.41	502.12	501.86	501.64	501.47	501.36	501.31	501.34	501.06	500.86	500.75	500.74	500.82	501	501.25	501.57	501.94	502.34	502.38	502.45	502.52	502.61	502.71	502.83	502.95	503.07	503.21	503.34	503.10	502.87	502.67	502.50	502.37	502.28	502.24	502.24	502.27	502.34	502.06	501.81	501.61	501.44	501.33	501.25	501.22	501.23	501.27	501.34	501.06	500.80	500.59	500.41	500.28	500.20	500.17	500.18	500.24	500.33	500.10	499.91	499.77	499.69	499.67	499.71	499.80	499.95	500.13	500.33	500.19	500.05	499.94	499.83	499.74	499.66	499.58	499.50	499.42	499.33	498.87	498.42	497.98	497.58	497.22	496.92	496.68	496.50	496.39	496.33	495.96	495.65	495.41	495.24	495.13	495.08	495.09	495.14	495.22	495.33	495.09	494.86	494.66	494.50	494.37	494.28	494.24	494.23	494.26	494.33	494.06	493.82	493.62	493.46	493.36	493.29	493.26	493.27	493.29	493.33	493.01	492.69	492.40	492.13	491.90	491.70	491.54	491.43	491.36	491.33	490.97	490.65	490.40	490.21	490.08	490.02	490.03	490.09	490.19	490.33	490.12	489.93	489.76	489.62	489.51	489.43	489.37	489.33	489.32	489.33	488.98	488.67	488.40	488.18	488.03	487.95	487.94	488.01	488.14	488.33	488.20	488.12	488.10	488.14	488.23	488.37	488.56	488.79	489.05	489.33	489.25	489.19	489.16	489.18	489.24	489.35	489.51	489.73	490.01	490.33	490.32	490.35	490.44	490.58	490.77	491.01	491.30	491.62	491.97	492.33	492.33	492.33	492.35	492.39	492.46	492.57	492.71	492.88	493.09	493.33	493.22	493.15	493.12	493.15	493.22	493.35	493.53	493.76	494.03	494.33	494.28	494.25	494.25	494.28	494.36	494.48	494.63	494.83	495.07	495.33	495.25	495.19	495.17	495.20	495.27	495.40	495.57	495.79	496.05	496.33	496.26	496.22	496.21	496.24	496.31	496.42	496.58	496.79	497.04	497.33	497.28	497.27	497.31	497.41	497.57	497.80	498.10	498.46	498.87	499.33	499.46	499.61	499.81	500.05	500.34	500.67	501.03	501.44	501.87	502.34	502.44	502.58	502.74	502.96	503.22	503.54	503.91	504.34	504.82	505.34	505.51	505.71	505.94	506.21	506.51	506.83	507.18	507.56	507.94	508.34	508.36	508.40	508.46	508.56	508.70	508.90	509.16	509.49	509.88	510.34	510.48	510.68	510.94	511.27	511.67	512.12	512.62	513.17	513.75	514.34	514.57	514.80	515.04	515.30	515.58	515.88	516.21	516.57	516.95	517.35	517.39	517.45	517.55	517.69	517.86	518.09	518.35	518.65	518.99	519.35	519.35	519.39	519.45	519.56	519.72	519.93	520.21	520.53	520.92	521.35	521.45	521.59	521.79	522.04	522.34	522.69	523.08	523.49	523.92	524.35	524.39	524.42	524.43	524.43	524.43	524.42	524.41	524.39	524.37	524.35	523.95	523.57	523.22	522.90	522.65	522.45	522.33	522.27	522.28	522.35	522.10	521.91	521.77	521.71	521.70	521.75	521.85	521.99	522.16	522.35	522.17	521.99	521.84	521.70	521.58	521.49	521.42	521.38	521.35	521.35	520.98	520.64	520.33	520.06	519.83	519.65	519.52	519.43	519.37	519.35	518.97	518.61	518.30	518.02	517.79	517.61	517.48	517.39	517.35	517.35	517	516.69	516.44	516.25	516.11	516.05	516.04	516.09	516.20	516.35	516.15	515.99	515.88	515.82	515.81	515.85	515.92	516.04	516.18	516.35	516.14	515.95	515.77	515.63	515.51	515.42	515.36	515.33	515.32	515.34	515.01	514.70	514.45	514.25	514.11	514.04	514.03	514.09	514.20	514.34	514.14	513.95	513.80	513.68	513.58	513.50	513.44	513.39	513.36	513.34	512.95	512.59	512.28	512.03	511.87	511.78	511.80	511.90	512.09	512.34	512.27	512.24	512.25	512.29	512.34	512.39	512.43	512.44	512.42	512.34	511.83	511.29	510.74	510.20	509.69	509.25	508.88	508.60	508.42	508.34	507.96	507.68	507.50	507.43	507.44	507.53	507.68	507.87	508.10	508.34	508.18	508.02	507.88	507.77	507.70	507.69	507.74	507.87	508.07	508.34	508.27	508.25	508.29	508.38	508.51	508.67	508.85	509.03	509.20	509.34	509.03	508.69	508.34	508	507.69	507.44	507.27	507.18	507.21	507.34	507.17	507.11	507.17	507.36	507.65	508.05	508.54	509.10	509.71	510.34	510.56	510.78	510.99	511.22	511.47	511.75	512.07	512.44	512.87	513.34	513.45	513.62	513.85	514.15	514.53	514.98	515.49	516.06	516.69	517.35	517.61	517.90	518.22	518.59	519.02	519.52	520.10	520.76	521.51	522.35	522.85	523.42	524.09	524.85	525.70	526.66	527.70	528.84	530.06	531.36	532.31	533.33	534.44	535.65	536.98	538.41	539.98	541.66	543.46	545.36	546.95	548.60	550.33	552.11	553.95	555.82	557.71	559.61	561.50	563.38	564.82	566.23	567.63	569.04	570.47	571.94	573.46	575.04	576.69	578.39	579.74	581.14	582.59	584.09	585.63	587.19	588.76	590.33	591.88	593.40	594.47	595.50	596.49	597.46	598.42	599.39	600.36	601.36	602.37	603.40	604.06	604.74	605.43	606.15	606.88	607.62	608.35	609.07	609.76	610.41	610.63	610.81	610.97	611.11	611.26	611.42	611.61	611.84	612.11	612.41	612.37	612.37	612.42	612.51	612.64	612.79	612.97	613.14	613.29	613.41	613.11	612.77	612.40	612	611.58	611.15	610.72	610.28	609.85	609.41	608.59	607.78	606.98	606.19	605.41	604.63	603.86	603.06	602.25	601.40	600.15	598.87	597.58	596.30	595.03	593.80	592.61	591.47	590.40	589.39	588.09	586.87	585.76	584.75	583.85	583.04	582.31	581.64	581.01	580.39	579.39	578.39	577.37	576.33	575.27	574.17	573.03	571.86	570.64	569.38	567.71	566.04	564.39	562.78	561.21	559.71	558.28	556.91	555.61	554.37	552.81	551.31	549.89	548.54	547.25	546.01	544.81	543.65	542.50	541.36	539.85	538.37	536.92	535.53	534.20	532.92	531.70	530.54	529.43	528.35	526.93	525.54	524.21	522.91	521.64	520.39	519.15	517.90	516.63	515.34	513.65	511.95	510.28	508.66	507.08	505.57	504.14	502.79	501.52	500.33	498.85	497.46	496.18	495.01	493.92	492.92	491.97	491.07	490.20	489.33	488.07	486.84	485.63	484.45	483.31	482.22	481.17	480.17	479.22	478.32	477.07	475.89	474.78	473.73	472.74	471.80	470.90	470.03	469.17	468.31	467.08	465.86	464.68	463.54	462.47	461.47	460.54	459.71	458.96	458.31	457.36	456.52	455.80	455.19	454.69	454.29	453.96	453.70	453.49	453.30	452.75	452.23	451.73	451.27	450.84	450.45	450.10	449.79	449.53	449.30	448.73	448.22	447.77	447.39	447.07	446.82	446.62	446.48	446.37	446.30	445.87	445.48	445.14	444.84	444.60	444.42	444.31	444.25	444.25	444.30	444.02	443.80	443.64	443.55	443.52	443.56	443.66	443.82	444.04	444.30	444.24	444.24	444.32	444.48	444.73	445.07	445.51	446.03	446.64	447.30	447.64	448.03	448.44	448.87	449.32	449.76	450.19	450.60	450.97	451.30	451.24	451.15	451.07	451.01	451	451.07	451.22	451.47	451.83	452.30	452.52	452.85	453.28	453.82	454.44	455.15	455.90	456.70	457.51	458.31	458.73	459.12	459.49	459.85	460.21	460.58	460.97	461.38	461.83	462.31	462.48	462.69	462.95	463.28	463.66	464.11	464.60	465.14	465.72	466.31	466.56	466.82	467.11	467.42	467.76	468.16	468.61	469.12	469.69	470.31	470.65	471.04	471.49	472.02	472.61	473.26	473.97	474.73	475.51	476.32	476.77	477.23	477.69	478.16	478.64	479.14	479.66	480.20	480.75	481.32	481.54	481.78	482.02	482.29	482.58	482.89	483.22	483.58	483.95	484.32	484.35	484.39	484.44	484.53	484.67	484.86	485.12	485.45	485.85	486.33	486.51	486.77	487.10	487.52	488	488.57	489.19	489.87	490.59	491.33	491.72	492.11	492.50	492.89	493.28	493.68	494.09	494.50	494.91	495.33	495.39	495.46	495.54	495.66	495.81	496.02	496.27	496.58	496.93	497.33	497.41	497.53	497.70	497.92	498.20	498.53	498.92	499.35	499.83	500.33	500.50	500.69	500.91	501.15	501.43	501.74	502.09	502.48	502.89	503.34	503.44	503.58	503.75	503.97	504.24	504.57	504.95	505.37	505.84	506.34	506.49	506.65	506.83	507.03	507.23	507.45	507.67	507.90	508.12	508.34	508.19	508.04	507.90	507.80	507.74	507.73	507.79	507.91	508.09	508.34	508.28	508.28	508.35	508.48	508.68	508.93	509.24	509.58	509.95	510.34	510.37	510.40	510.44	510.50	510.57	510.68	510.80	510.96	511.14	511.34	511.20	511.07	510.99	510.93	510.92	510.95	511.01	511.10	511.21	511.34	511.11	510.88	510.68	510.50	510.36	510.26	510.20	510.20	510.24	510.34	510.12	509.96	509.88	509.87	509.95	510.10	510.33	510.62	510.97	511.34	511.36	511.39	511.43	511.46	511.49	511.51	511.51	511.48	511.43	511.34	510.85	510.34	509.83	509.33	508.86	508.43	508.06	507.75	507.51	507.34	506.87	506.48	506.18	505.97	505.85	505.82	505.87	505.98	506.14	506.34	506.18	506.03	505.90	505.79	505.68	505.59	505.52	505.45	505.39	505.34	504.93	504.54	504.18	503.88	503.64	503.46	503.34	503.28	503.29	503.34	503.06	502.82	502.62	502.47	502.37	502.30	502.27	502.27	502.30	502.34	502.02	501.73	501.47	501.27	501.12	501.03	501.01	501.05	501.16	501.34	501.19	501.10	501.08	501.12	501.23	501.38	501.59	501.82	502.08	502.34	502.22	502.09	501.97	501.85	501.73	501.63	501.54	501.46	501.39	501.34	500.92	500.54	500.20	499.90	499.67	499.50	499.38	499.32	499.31	499.33	499.01	498.71	498.43	498.19	497.98	497.80	497.64	497.51	497.41	497.33	496.91	496.52	496.20	495.95	495.79	495.71	495.74	495.85	496.06	496.33	496.30	496.31	496.38	496.49	496.64	496.80	496.96	497.11	497.24	497.33	497.01	496.66	496.29	495.91	495.55	495.21	494.91	494.66	494.47	494.33	493.88	493.50	493.20	492.99	492.87	492.82	492.86	492.96	493.12	493.33	493.20	493.11	493.07	493.08	493.14	493.27	493.46	493.70	494	494.33	494.32	494.35	494.41	494.49	494.60	494.73	494.88	495.03	495.18	495.33	495.10	494.88	494.68	494.53	494.45	494.44	494.52	494.69	494.96	495.33	495.41	495.59	495.85	496.20	496.62	497.11	497.64	498.20	498.77	499.33	499.51	499.67	499.82	499.97	500.13	500.31	500.52	500.76	501.03	501.34	501.29	501.29	501.32	501.39	501.50	501.64	501.81	501.98	502.16	502.34	502.12	501.90	501.68	501.48	501.32	501.20	501.13	501.13	501.20	501.34	501.18	501.10	501.10	501.20	501.39	501.66	502.01	502.41	502.86	503.34	503.46	503.59	503.73	503.89	504.08	504.28	504.51	504.76	505.04	505.34	505.28	505.25	505.25	505.29	505.38	505.51	505.67	505.87	506.10	506.34	506.22	506.11	506.02	505.95	505.92	505.92	505.96	506.05	506.17	506.34	506.17	506.05	505.99	505.99	506.06	506.20	506.41	506.67	506.99	507.34	507.34	507.37	507.42	507.50	507.60	507.73	507.87	508.02	508.18	508.34	508.13	507.92	507.73	507.56	507.42	507.33	507.27	507.26	507.28	507.34	507.05	506.79	506.58	506.41	506.28	506.21	506.18	506.19	506.25	506.34	506.08	505.87	505.70	505.59	505.55	505.58	505.67	505.84	506.06	506.34	506.28	506.27	506.30	506.37	506.48	506.62	506.78	506.96	507.15	507.34	507.14	506.94	506.75	506.57	506.42	506.31	506.25	506.23	506.26	506.34	506.08	505.88	505.73	505.65	505.63	505.68	505.78	505.93	506.12	506.34	506.19	506.06	505.96	505.89	505.86	505.86	505.91	506.01	506.15	506.34	506.18	506.06	506.01	506.01	506.08	506.22	506.43	506.69	507	507.34	507.32	507.32	507.35	507.40	507.49	507.61	507.75	507.93	508.13	508.34	508.17	508.02	507.89	507.80	507.76	507.77	507.83	507.95	508.12	508.34	508.20	508.09	508.04	508.05	508.11	508.25	508.44	508.69	509	509.34	509.31	509.29	509.31	509.36	509.45	509.57	509.72	509.90	510.11	510.34	510.17	510.01	509.88	509.78	509.73	509.73	509.79	509.91	510.10	510.34	510.22	510.16	510.16	510.23	510.38	510.61	510.92	511.32	511.80	512.34	512.54	512.79	513.11	513.50	513.97	514.51	515.13	515.82	516.56	517.35	517.74	518.16	518.59	519.05	519.53	520.03	520.57	521.13	521.72	522.35	522.60	522.91	523.29	523.76	524.35	525.06	525.92	526.93	528.07	529.35	530.35	531.45	532.66	533.97	535.37	536.86	538.41	540.02	541.67	543.36	544.68	546.02	547.41	548.86	550.39	552	553.71	555.51	557.40	559.37	561.01	562.70	564.43	566.18	567.96	569.73	571.47	573.17	574.82	576.39	577.48	578.51	579.47	580.41	581.33	582.26	583.21	584.22	585.28	586.39	587.18	588.03	588.96	589.94	590.98	592.06	593.16	594.27	595.35	596.40	597.01	597.57	598.09	598.57	599.03	599.48	599.94	600.40	600.89	601.40	601.56	601.76	602	602.28	602.61	602.96	603.34	603.71	604.08	604.40	604.32	604.19	604.02	603.82	603.60	603.37	603.13	602.89	602.64	602.40	601.80	601.21	600.65	600.12	599.62	599.15	598.71	598.27	597.84	597.40	596.58	595.74	594.91	594.09	593.27	592.47	591.68	590.91	590.15	589.39	588.27	587.15	586.05	584.95	583.87	582.79	581.71	580.62	579.51	578.39	576.87	575.35	573.84	572.36	570.91	569.51	568.16	566.85	565.59	564.38	562.83	561.32	559.86	558.45	557.07	555.73	554.39	553.06	551.72	550.37	548.62	546.87	545.13	543.43	541.77	540.17	538.62	537.13	535.72	534.36	532.68	531.08	529.55	528.11	526.73	525.40	524.12	522.86	521.60	520.35	518.69	517.05	515.42	513.82	512.26	510.75	509.29	507.90	506.58	505.34	503.78	502.33	500.99	499.76	498.65	497.64	496.72	495.87	495.08	494.33	493.21	492.11	491.05	490.02	489.02	488.04	487.08	486.14	485.23	484.32	483.05	481.82	480.64	479.54	478.50	477.53	476.64	475.81	475.04	474.32	473.25	472.23	471.28	470.39	469.57	468.82	468.12	467.47	466.87	466.31	465.40	464.54	463.74	463.02	462.37	461.81	461.32	460.91	460.57	460.31	459.72	459.21	458.80	458.48	458.25	458.12	458.07	458.09	458.18	458.31	458.08	457.89	457.73	457.60	457.51	457.43	457.38	457.35	457.32	457.31	456.92	456.56	456.25	456	455.83	455.74	455.74	455.84	456.03	456.31	456.28	456.33	456.47	456.70	457	457.37	457.80	458.27	458.78	459.31	459.47	459.64	459.84	460.07	460.34	460.65	461	461.40	461.84	462.31	462.44	462.61	462.81	463.06	463.35	463.69	464.05	464.45	464.87	465.31	465.39	465.49	465.62	465.80	466.04	466.34	466.72	467.17	467.71	468.31	468.62	469	469.45	469.98	470.58	471.25	471.97	472.73	473.52	474.32	474.75	475.19	475.63	476.08	476.55	477.05	477.57	478.12	478.70	479.32	479.60	479.92	480.28	480.70	481.17	481.71	482.29	482.93	483.61	484.32	484.69	485.08	485.50	485.94	486.42	486.93	487.48	488.06	488.68	489.33	489.64	489.98	490.35	490.77	491.24	491.77	492.34	492.96	493.63	494.33	494.69	495.08	495.49	495.94	496.42	496.94	497.50	498.08	498.70	499.33	499.62	499.93	500.25	500.61	500.99	501.41	501.86	502.34	502.83	503.34	503.48	503.62	503.77	503.93	504.10	504.29	504.51	504.75	505.03	505.34	505.32	505.34	505.42	505.57	505.81	506.15	506.57	507.08	507.68	508.34	508.68	509.06	509.47	509.91	510.35	510.79	511.22	511.63	512	512.34	512.28	512.18	512.07	511.96	511.88	511.85	511.86	511.95	512.11	512.34	512.28	512.28	512.36	512.51	512.73	513	513.31	513.65	514	514.34	514.30	514.24	514.17	514.10	514.05	514.02	514.02	514.07	514.18	514.34	514.20	514.13	514.13	514.23	514.41	514.68	515.02	515.43	515.87	516.35	516.45	516.56	516.67	516.78	516.88	516.98	517.07	517.17	517.26	517.35	517.06	516.79	516.54	516.33	516.18	516.08	516.05	516.09	516.19	516.35	516.18	516.07	516.02	516.03	516.12	516.26	516.46	516.72	517.01	517.35	517.33	517.34	517.37	517.44	517.54	517.67	517.83	518	518.17	518.35	518.13	517.91	517.68	517.46	517.24	517.03	516.84	516.66	516.49	516.35	515.84	515.37	514.96	514.61	514.34	514.16	514.08	514.08	514.17	514.34	514.21	514.14	514.14	514.21	514.33	514.50	514.70	514.91	515.14	515.34	515.15	514.94	514.72	514.49	514.26	514.03	513.83	513.64	513.48	513.34	512.86	512.42	512.04	511.73	511.49	511.33	511.24	511.22	511.26	511.34	511.08	510.85	510.66	510.50	510.39	510.31	510.26	510.26	510.28	510.34	510.05	509.81	509.62	509.50	509.46	509.50	509.61	509.80	510.05	510.34	510.29	510.27	510.27	510.29	510.32	510.35	510.38	510.39	510.38	510.34	509.90	509.45	509	508.58	508.20	507.88	507.63	507.45	507.36	507.34	507.02	506.77	506.62	506.54	506.54	506.61	506.74	506.91	507.12	507.34	507.19	507.05	506.94	506.86	506.82	506.82	506.87	506.98	507.14	507.34	507.20	507.09	507.03	507.01	507.03	507.07	507.14	507.21	507.28	507.34	507	506.66	506.32	506.01	505.74	505.52	505.36	505.28	505.27	505.34	505.10	504.94	504.86	504.88	504.97	505.15	505.38	505.67	505.99	506.34	506.31	506.29	506.29	506.32	506.38	506.48	506.63	506.82	507.06	507.34	507.27	507.25	507.26	507.33	507.43	507.58	507.75	507.94	508.14	508.34	508.14	507.94	507.74	507.55	507.40	507.28	507.21	507.20	507.24	507.34	507.11	506.95	506.87	506.86	506.94	507.09	507.32	507.61	507.96	508.34	508.37	508.42	508.51	508.64	508.81	509.03	509.29	509.60	509.95	510.34	510.37	510.44	510.54	510.69	510.88	511.11	511.38	511.68	512.01	512.34	512.30	512.27	512.26	512.27	512.33	512.42	512.57	512.77	513.03	513.34	513.32	513.36	513.46	513.65	513.92	514.26	514.69	515.19	515.74	516.35	516.60	516.88	517.20	517.56	517.95	518.37	518.83	519.32	519.82	520.35	520.50	520.67	520.87	521.10	521.37	521.69	522.05	522.45	522.89	523.35	523.44	523.55	523.69	523.84	524.03	524.24	524.48	524.75	525.04	525.35	525.30	525.27	525.29	525.36	525.50	525.72	526.01	526.39	526.84	527.35	527.55	527.80	528.10	528.47	528.88	529.34	529.83	530.34	530.85	531.36	531.46	531.54	531.62	531.69	531.76	531.85	531.95	532.06	532.20	532.36	532.15	531.97	531.84	531.75	531.71	531.74	531.82	531.95	532.13	532.36	532.23	532.14	532.11	532.12	532.19	532.32	532.50	532.74	533.03	533.36	533.33	533.34	533.38	533.46	533.57	533.71	533.86	534.03	534.20	534.36	534.12	533.87	533.62	533.38	533.15	532.93	532.75	532.59	532.46	532.36	531.90	531.49	531.13	530.84	530.60	530.43	530.33	530.29	530.30	530.35	530.06	529.81	529.61	529.45	529.34	529.27	529.24	529.26	529.30	529.35	529.05	528.75	528.49	528.25	528.03	527.85	527.70	527.56	527.45	527.35	526.89	526.44	526.03	525.65	525.32	525.04	524.80	524.61	524.47	524.35	523.88	523.45	523.05	522.70	522.38	522.11	521.88	521.68	521.50	521.35	520.83	520.34	519.90	519.50	519.16	518.88	518.66	518.50	518.40	518.35	517.95	517.61	517.32	517.07	516.88	516.73	516.61	516.51	516.43	516.35	515.87	515.40	514.94	514.49	514.06	513.66	513.29	512.94	512.63	512.34	511.70	511.09	510.53	510.03	509.60	509.23	508.92	508.67	508.48	508.34	507.85	507.42	507.04	506.74	506.50	506.34	506.25	506.22	506.26	506.34	506.07	505.84	505.65	505.51	505.41	505.35	505.32	505.31	505.32	505.34	504.95	504.56	504.18	503.82	503.49	503.19	502.92	502.69	502.50	502.34	501.80	501.29	500.83	500.43	500.08	499.80	499.59	499.44	499.36	499.33	498.95	498.63	498.39	498.23	498.17	498.20	498.34	498.58	498.92	499.33	499.41	499.54	499.74	500	500.32	500.68	501.07	501.49	501.92	502.34	502.32	502.29	502.24	502.19	502.14	502.12	502.12	502.15	502.22	502.34	502.08	501.87	501.72	501.66	501.69	501.82	502.05	502.38	502.82	503.34	503.53	503.79	504.15	504.61	505.16	505.81	506.55	507.40	508.33	509.34	510.01	510.74	511.54	512.42	513.37	514.41	515.53	516.73	518	519.35	520.35	521.42	522.58	523.82	525.16	526.60	528.15	529.80	531.54	533.36	534.84	536.38	537.99	539.64	541.35	543.10	544.89	546.71	548.54	550.37	551.80	553.22	554.64	556.08	557.54	559.04	560.57	562.13	563.74	565.38	566.65	567.95	569.29	570.66	572.07	573.50	574.97	576.44	577.92	579.39	580.44	581.47	582.48	583.48	584.47	585.45	586.44	587.42	588.41	589.39	590	590.61	591.23	591.89	592.57	593.29	594.04	594.81	595.60	596.40	596.81	597.22	597.63	598.04	598.46	598.86	599.27	599.66	600.04	600.40	600.36	600.29	600.21	600.11	600.01	599.91	599.80	599.69	599.56	599.40	598.85	598.27	597.68	597.07	596.47	595.85	595.24	594.63	594.01	593.40	592.41	591.44	590.50	589.60	588.75	587.96	587.23	586.56	585.95	585.39	584.51	583.68	582.90	582.17	581.49	580.85	580.23	579.62	579.01	578.39	577.36	576.31	575.24	574.15	573.04	571.93	570.80	569.67	568.53	567.38	565.86	564.36	562.90	561.49	560.14	558.85	557.64	556.49	555.40	554.37	553.01	551.71	550.47	549.30	548.20	547.15	546.15	545.19	544.27	543.36	542.09	540.86	539.66	538.50	537.39	536.32	535.28	534.28	533.31	532.36	531.03	529.73	528.46	527.23	526.03	524.86	523.71	522.58	521.46	520.35	518.85	517.37	515.93	514.53	513.19	511.90	510.67	509.50	508.39	507.34	505.96	504.65	503.44	502.32	501.29	500.35	499.50	498.72	498	497.33	496.31	495.35	494.43	493.58	492.77	492.01	491.30	490.62	489.96	489.33	488.32	487.35	486.43	485.55	484.73	483.95	483.23	482.56	481.92	481.32	480.37	479.46	478.60	477.81	477.08	476.42	475.81	475.27	474.77	474.32	473.52	472.78	472.11	471.50	470.97	470.51	470.13	469.80	469.53	469.31	468.76	468.25	467.81	467.43	467.12	466.87	466.67	466.52	466.40	466.31	465.86	465.43	465.04	464.68	464.36	464.08	463.84	463.63	463.46	463.31	462.82	462.37	461.98	461.66	461.41	461.24	461.15	461.14	461.20	461.31	461.09	460.93	460.82	460.77	460.77	460.81	460.90	461.01	461.15	461.31	461.10	460.92	460.77	460.67	460.62	460.63	460.70	460.84	461.05	461.31	461.25	461.25	461.32	461.45	461.64	461.89	462.19	462.54	462.91	463.31	463.35	463.41	463.50	463.62	463.78	463.99	464.25	464.55	464.91	465.31	465.38	465.50	465.67	465.90	466.19	466.53	466.92	467.35	467.82	468.31	468.46	468.62	468.81	469.03	469.30	469.61	469.96	470.37	470.82	471.32	471.49	471.70	471.97	472.29	472.68	473.11	473.60	474.14	474.72	475.32	475.58	475.85	476.15	476.48	476.85	477.26	477.71	478.20	478.74	479.32	479.57	479.86	480.21	480.61	481.07	481.60	482.20	482.85	483.57	484.32	484.76	485.23	485.74	486.29	486.89	487.52	488.20	488.90	489.61	490.33	490.67	491	491.32	491.63	491.92	492.21	492.49	492.77	493.05	493.33	493.25	493.20	493.18	493.22	493.34	493.54	493.85	494.25	494.75	495.33	495.63	495.99	496.41	496.89	497.41	497.97	498.56	499.15	499.75	500.33	500.54	500.74	500.94	501.16	501.41	501.70	502.03	502.42	502.86	503.34	503.48	503.66	503.85	504.07	504.30	504.53	504.76	504.97	505.17	505.34	505.12	504.90	504.68	504.51	504.39	504.36	504.43	504.61	504.92	505.34	505.51	505.78	506.16	506.63	507.18	507.79	508.44	509.09	509.73	510.34	510.53	510.67	510.77	510.83	510.88	510.92	510.98	511.06	511.18	511.34	511.19	511.09	511.06	511.09	511.20	511.36	511.57	511.82	512.08	512.34	512.22	512.08	511.93	511.77	511.63	511.50	511.39	511.33	511.31	511.34	511.06	510.85	510.73	510.70	510.76	510.92	511.18	511.51	511.90	512.34	512.45	512.58	512.73	512.91	513.11	513.33	513.57	513.82	514.08	514.34	514.24	514.14	514.06	514	513.98	513.99	514.04	514.11	514.22	514.34	514.11	513.89	513.71	513.55	513.43	513.34	513.29	513.28	513.30	513.34	513.04	512.76	512.52	512.34	512.20	512.12	512.10	512.13	512.21	512.34	512.14	511.97	511.86	511.80	511.79	511.83	511.92	512.04	512.19	512.34	512.13	511.91	511.70	511.49	511.28	511.08	510.89	510.70	510.52	510.34	509.79	509.26	508.77	508.33	507.96	507.67	507.46	507.33	507.29	507.34	507.09	506.92	506.84	506.85	506.94	507.11	507.35	507.65	507.98	508.34	508.33	508.32	508.32	508.33	508.34	508.35	508.36	508.36	508.36	508.34	507.93	507.52	507.12	506.74	506.39	506.09	505.83	505.61	505.45	505.34	504.90	504.51	504.20	503.97	503.82	503.76	503.78	503.89	504.08	504.34	504.28	504.28	504.35	504.48	504.68	504.94	505.25	505.59	505.96	506.34	506.34	506.33	506.32	506.31	506.31	506.30	506.30	506.31	506.32	506.34	505.99	505.66	505.38	505.16	505	504.92	504.92	505	505.14	505.34	505.21	505.12	505.07	505.05	505.07	505.11	505.16	505.22	505.28	505.34	505.01	504.70	504.41	504.16	503.98	503.88	503.85	503.93	504.09	504.34	504.29	504.32	504.43	504.61	504.85	505.14	505.44	505.76	506.07	506.34	506.19	506.01	505.78	505.54	505.29	505.04	504.81	504.61	504.45	504.34	503.91	503.56	503.30	503.14	503.10	503.16	503.33	503.59	503.93	504.34	504.41	504.52	504.67	504.85	505.06	505.29	505.54	505.80	506.07	506.34	506.23	506.12	506.03	505.96	505.93	505.94	505.98	506.06	506.19	506.34	506.14	505.98	505.86	505.79	505.77	505.80	505.87	505.99	506.15	506.34	506.18	506.04	505.94	505.88	505.86	505.88	505.94	506.04	506.18	506.34	506.15	505.98	505.85	505.77	505.74	505.76	505.83	505.95	506.12	506.34	506.22	506.14	506.11	506.13	506.21	506.35	506.54	506.78	507.05	507.34	507.27	507.21	507.17	507.15	507.14	507.16	507.19	507.23	507.28	507.34	507.03	506.73	506.47	506.25	506.09	505.99	505.97	506.02	506.14	506.34	506.22	506.18	506.22	506.33	506.52	506.79	507.11	507.49	507.90	508.34	508.41	508.48	508.56	508.65	508.74	508.85	508.96	509.08	509.21	509.34	509.09	508.86	508.65	508.47	508.34	508.25	508.21	508.21	508.26	508.34	508.07	507.83	507.62	507.46	507.34	507.26	507.22	507.22	507.27	507.34	507.07	506.84	506.66	506.54	506.50	506.52	506.63	506.80	507.05	507.34	507.30	507.30	507.34	507.42	507.53	507.67	507.83	508	508.17	508.34	508.12	507.89	507.68	507.48	507.33	507.21	507.16	507.16	507.22	507.34	507.14	507	506.93	506.94	507.02	507.17	507.40	507.67	507.99	508.34	508.32	508.31	508.33	508.37	508.44	508.55	508.69	508.87	509.09	509.34	509.23	509.15	509.11	509.13	509.21	509.34	509.53	509.76	510.04	510.34	510.26	510.18	510.12	510.08	510.06	510.07	510.10	510.15	510.23	510.34	510.07	509.82	509.62	509.49	509.43	509.44	509.55	509.74	510	510.34	510.33	510.36	510.45	510.59	510.79	511.03	511.31	511.63	511.98	512.34	512.30	512.27	512.26	512.28	512.34	512.45	512.60	512.81	513.06	513.34	513.24	513.14	513.08	513.03	513.01	513.02	513.06	513.12	513.22	513.34	513.08	512.87	512.72	512.67	512.74	512.94	513.30	513.82	514.50	515.34	515.92	516.64	517.49	518.48	519.59	520.80	522.11	523.48	524.90	526.35	527.40	528.46	529.54	530.64	531.77	532.96	534.21	535.52	536.91	538.36	539.47	540.64	541.89	543.20	544.60	546.06	547.57	549.14	550.74	552.37	553.60	554.84	556.10	557.39	558.73	560.12	561.58	563.11	564.71	566.38	567.71	569.11	570.58	572.12	573.73	575.40	577.11	578.86	580.63	582.39	583.74	585.07	586.38	587.68	588.97	590.25	591.54	592.83	594.12	595.40	596.28	597.15	598.03	598.92	599.82	600.73	601.64	602.57	603.49	604.40	604.92	605.43	605.94	606.48	607.04	607.64	608.27	608.95	609.67	610.41	610.79	611.18	611.60	612.03	612.48	612.92	613.34	613.74	614.11	614.41	614.27	614.07	613.83	613.54	613.21	612.87	612.51	612.15	611.78	611.41	610.67	609.94	609.24	608.57	607.95	607.37	606.84	606.33	605.86	605.40	604.58	603.78	603.01	602.26	601.54	600.86	600.21	599.59	598.99	598.40	597.44	596.50	595.58	594.67	593.79	592.92	592.05	591.18	590.30	589.39	588.08	586.75	585.42	584.08	582.76	581.44	580.15	578.87	577.62	576.39	574.80	573.26	571.78	570.37	569.04	567.78	566.59	565.47	564.40	563.38	562	560.67	559.39	558.15	556.96	555.80	554.66	553.55	552.46	551.37	549.90	548.45	547.03	545.66	544.33	543.05	541.82	540.64	539.48	538.36	536.87	535.42	534.02	532.66	531.36	530.09	528.86	527.67	526.50	525.35	523.84	522.37	520.96	519.63	518.37	517.20	516.12	515.12	514.20	513.34	512.16	511.05	510.01	509.06	508.17	507.33	506.55	505.79	505.06	504.34	503.23	502.15	501.10	500.11	499.17	498.29	497.47	496.70	496	495.33	494.32	493.36	492.46	491.62	490.84	490.09	489.38	488.68	488	487.33	486.26	485.23	484.23	483.29	482.42	481.63	480.92	480.30	479.77	479.32	478.57	477.91	477.35	476.89	476.50	476.19	475.94	475.72	475.52	475.32	474.73	474.14	473.56	473	472.46	471.96	471.49	471.05	470.66	470.31	469.63	469	468.44	467.95	467.54	467.19	466.91	466.67	466.48	466.31	465.79	465.30	464.85	464.45	464.10	463.81	463.59	463.43	463.34	463.31	462.97	462.70	462.51	462.40	462.38	462.45	462.58	462.78	463.03	463.31	463.25	463.22	463.23	463.28	463.37	463.49	463.66	463.85	464.07	464.31	464.19	464.09	464.02	463.97	463.96	463.98	464.03	464.10	464.20	464.31	464.07	463.86	463.69	463.57	463.51	463.52	463.61	463.77	464.01	464.31	464.31	464.39	464.54	464.76	465.05	465.41	465.83	466.30	466.80	467.31	467.47	467.63	467.79	467.97	468.16	468.36	468.58	468.81	469.05	469.31	469.22	469.15	469.12	469.12	469.18	469.30	469.48	469.71	469.99	470.31	470.31	470.35	470.42	470.54	470.71	470.93	471.21	471.53	471.90	472.32	472.41	472.56	472.77	473.05	473.42	473.86	474.37	474.97	475.62	476.32	476.69	477.08	477.48	477.90	478.32	478.75	479.16	479.56	479.95	480.32	480.31	480.30	480.31	480.35	480.46	480.64	480.91	481.28	481.75	482.32	482.62	483.01	483.48	484.04	484.66	485.34	486.07	486.82	487.57	488.33	488.70	489.05	489.39	489.73	490.08	490.45	490.86	491.30	491.80	492.33	492.54	492.80	493.10	493.46	493.87	494.32	494.80	495.30	495.82	496.33	496.47	496.60	496.72	496.85	497	497.18	497.39	497.66	497.97	498.33	498.38	498.48	498.64	498.87	499.16	499.52	499.92	500.37	500.84	501.34	501.47	501.60	501.74	501.89	502.06	502.26	502.48	502.73	503.02	503.34	503.32	503.34	503.41	503.53	503.71	503.94	504.23	504.56	504.94	505.34	505.40	505.48	505.58	505.71	505.88	506.09	506.34	506.63	506.96	507.34	507.39	507.48	507.63	507.84	508.12	508.46	508.86	509.32	509.82	510.34	510.52	510.70	510.89	511.09	511.30	511.51	511.72	511.93	512.14	512.34	512.18	512.02	511.88	511.78	511.73	511.74	511.80	511.93	512.11	512.34	512.24	512.17	512.13	512.12	512.13	512.16	512.20	512.25	512.30	512.34	512.01	511.70	511.41	511.17	510.99	510.89	510.87	510.94	511.10	511.34	511.28	511.29	511.36	511.48	511.63	511.81	511.98	512.14	512.27	512.34	511.99	511.59	511.14	510.68	510.21	509.75	509.32	508.94	508.61	508.34	507.77	507.27	506.87	506.56	506.34	506.21	506.16	506.18	506.24	506.34	506.09	505.85	505.65	505.47	505.34	505.24	505.19	505.19	505.24	505.34	505.10	504.92	504.80	504.73	504.73	504.78	504.87	505.01	505.17	505.34	505.14	504.95	504.77	504.61	504.48	504.38	504.32	504.29	504.30	504.34	504.03	503.77	503.55	503.38	503.27	503.20	503.19	503.21	503.26	503.34	503.05	502.79	502.56	502.37	502.23	502.15	502.11	502.13	502.21	502.34	502.13	501.97	501.86	501.81	501.82	501.87	501.95	502.07	502.20	502.34	502.09	501.83	501.58	501.34	501.11	500.90	500.71	500.56	500.43	500.33	499.90	499.52	499.20	498.96	498.80	498.74	498.76	498.88	499.07	499.33	499.28	499.30	499.37	499.51	499.71	499.96	500.26	500.59	500.96	501.34	501.35	501.37	501.40	501.46	501.55	501.65	501.79	501.95	502.14	502.34	502.18	502.04	501.93	501.86	501.84	501.86	501.92	502.03	502.17	502.34	502.15	502	501.88	501.81	501.78	501.80	501.87	501.98	502.14	502.34	502.19	502.09	502.04	502.05	502.13	502.26	502.46	502.71	503	503.34	503.32	503.34	503.38	503.45	503.55	503.68	503.82	503.99	504.16	504.34	504.14	503.94	503.75	503.59	503.46	503.36	503.30	503.28	503.29	503.34	503.03	502.76	502.53	502.34	502.21	502.13	502.11	502.13	502.21	502.34	502.13	501.97	501.88	501.86	501.91	502.05	502.27	502.56	502.92	503.34	503.42	503.55	503.72	503.92	504.14	504.39	504.64	504.90	505.13	505.34	505.14	504.91	504.66	504.40	504.15	503.92	503.71	503.54	503.41	503.34	502.94	502.61	502.37	502.22	502.17	502.23	502.38	502.63	502.95	503.34	503.40	503.50	503.64	503.82	504.03	504.26	504.52	504.79	505.06	505.34	505.23	505.13	505.03	504.97	504.93	504.93	504.98	505.06	505.18	505.34	505.15	504.99	504.88	504.81	504.78	504.81	504.88	505	505.15	505.34	505.18	505.06	505	504.99	505.04	505.17	505.37	505.63	505.96	506.34	506.39	506.47	506.61	506.78	506.99	507.23	507.50	507.78	508.06	508.34	508.24	508.13	508.03	507.95	507.90	507.89	507.93	508.02	508.15	508.34	508.20	508.11	508.08	508.11	508.21	508.36	508.56	508.80	509.06	509.34	509.25	509.16	509.09	509.03	509	508.99	509.02	509.09	509.20	509.34	509.15	509.01	508.93	508.93	509	509.14	509.36	509.64	509.97	510.34	510.37	510.41	510.48	510.58	510.69	510.81	510.95	511.09	511.22	511.34	511.07	510.79	510.52	510.25	510.01	509.80	509.63	509.49	509.40	509.34	508.94	508.59	508.30	508.08	507.94	507.87	507.89	507.97	508.13	508.34	508.22	508.14	508.12	508.15	508.24	508.38	508.57	508.80	509.06	509.34	509.24	509.16	509.09	509.04	509.03	509.04	509.07	509.14	509.23	509.34	509.06	508.81	508.58	508.38	508.24	508.15	508.12	508.14	508.22	508.34	508.10	507.89	507.74	507.64	507.61	507.63	507.72	507.88	508.08	508.34	508.22	508.14	508.10	508.12	508.19	508.32	508.50	508.74	509.03	509.34	509.26	509.19	509.13	509.10	509.08	509.09	509.13	509.18	509.26	509.34	509.01	508.69	508.41	508.16	507.98	507.87	507.85	507.92	508.08	508.34	508.27	508.28	508.40	508.63	508.97	509.43	510	510.68	511.47	512.34	512.87	513.47	514.14	514.90	515.75	516.68	517.72	518.84	520.05	521.35	522.29	523.30	524.39	525.56	526.82	528.16	529.59	531.11	532.70	534.36	535.65	537	538.41	539.88	541.43	543.06	544.77	546.56	548.43	550.37	551.96	553.61	555.32	557.12	558.99	560.94	562.96	565.05	567.19	569.38	571.19	573.02	574.88	576.76	578.66	580.59	582.53	584.49	586.45	588.39	589.92	591.43	592.92	594.41	595.89	597.39	598.88	600.39	601.90	603.40	604.51	605.62	606.74	607.89	609.06	610.27	611.51	612.78	614.09	615.41	616.35	617.31	618.28	619.26	620.27	621.30	622.33	623.37	624.40	625.42	626.02	626.59	627.14	627.67	628.18	628.68	629.15	629.60	630.03	630.42	630.40	630.34	630.26	630.17	630.07	629.96	629.85	629.72	629.58	629.42	628.85	628.27	627.67	627.06	626.44	625.83	625.22	624.62	624.02	623.42	622.44	621.49	620.57	619.69	618.85	618.08	617.35	616.67	616.03	615.41	614.43	613.46	612.50	611.55	610.59	609.61	608.62	607.59	606.52	605.40	603.86	602.29	600.71	599.13	597.57	596.05	594.56	593.12	591.73	590.39	588.72	587.11	585.58	584.11	582.71	581.37	580.08	578.83	577.60	576.39	574.79	573.22	571.68	570.19	568.75	567.36	566.03	564.76	563.55	562.38	560.86	559.40	558.01	556.68	555.40	554.16	552.95	551.76	550.57	549.37	547.75	546.15	544.55	542.98	541.44	539.94	538.48	537.06	535.69	534.36	532.67	531.04	529.48	528	526.59	525.24	523.95	522.71	521.51	520.35	518.81	517.33	515.92	514.59	513.34	512.18	511.10	510.11	509.19	508.34	507.14	506.01	504.94	503.93	502.96	502.03	501.11	500.20	499.27	498.33	496.98	495.64	494.33	493.06	491.87	490.76	489.74	488.83	488.02	487.33	486.34	485.49	484.76	484.17	483.68	483.30	482.99	482.74	482.53	482.32	481.72	481.13	480.56	480	479.47	478.97	478.50	478.07	477.67	477.32	476.62	475.98	475.42	474.93	474.52	474.19	473.91	473.68	473.49	473.32	472.77	472.24	471.75	471.28	470.85	470.46	470.10	469.80	469.53	469.31	468.76	468.27	467.86	467.53	467.30	467.15	467.09	467.10	467.18	467.31	467.11	466.96	466.85	466.80	466.80	466.84	466.92	467.03	467.17	467.31	467.09	466.89	466.71	466.56	466.45	466.36	466.31	466.29	466.29	466.31	465.98	465.69	465.44	465.23	465.09	465.01	465	465.04	465.15	465.31	465.15	465.05	465.01	465.03	465.11	465.26	465.46	465.71	466	466.31	466.28	466.27	466.29	466.33	466.42	466.53	466.68	466.86	467.08	467.31	467.21	467.13	467.10	467.11	467.17	467.29	467.47	467.70	467.99	468.31	468.31	468.35	468.44	468.57	468.75	468.98	469.26	469.58	469.94	470.31	470.35	470.41	470.50	470.62	470.79	471	471.26	471.57	471.92	472.32	472.39	472.50	472.66	472.88	473.16	473.50	473.89	474.33	474.81	475.32	475.48	475.64	475.82	476.01	476.21	476.42	476.63	476.86	477.09	477.32	477.19	477.08	477	476.96	476.99	477.08	477.26	477.53	477.88	478.32	478.48	478.72	479.04	479.46	479.95	480.52	481.16	481.85	482.58	483.32	483.71	484.10	484.49	484.88	485.28	485.68	486.08	486.49	486.91	487.33	487.38	487.45	487.54	487.65	487.81	488.02	488.27	488.58	488.93	489.33	489.40	489.51	489.67	489.88	490.15	490.48	490.86	491.30	491.80	492.33	492.54	492.78	493.06	493.39	493.77	494.19	494.67	495.18	495.74	496.33	496.58	496.86	497.17	497.52	497.91	498.33	498.80	499.29	499.81	500.33	500.50	500.67	500.85	501.03	501.22	501.43	501.64	501.86	502.10	502.34	502.22	502.12	502.06	502.04	502.08	502.19	502.37	502.62	502.95	503.34	503.42	503.56	503.76	504.02	504.33	504.68	505.07	505.48	505.91	506.34	506.40	506.45	506.50	506.55	506.63	506.72	506.83	506.98	507.15	507.34	507.19	507.06	506.97	506.92	506.91	506.94	507	507.09	507.21	507.34	507.11	506.90	506.70	506.53	506.39	506.29	506.24	506.23	506.26	506.34	506.09	505.89	505.74	505.65	505.63	505.67	505.76	505.92	506.11	506.34	506.22	506.13	506.07	506.03	506.02	506.05	506.10	506.16	506.25	506.34	506.06	505.79	505.53	505.29	505.07	504.87	504.70	504.56	504.44	504.34	503.89	503.47	503.10	502.79	502.54	502.36	502.25	502.21	502.24	502.34	502.11	501.94	501.83	501.77	501.77	501.82	501.91	502.03	502.18	502.34	502.13	501.93	501.74	501.58	501.45	501.35	501.30	501.27	501.29	501.34	501.04	500.78	500.56	500.39	500.27	500.20	500.18	500.20	500.26	500.33	500.06	499.81	499.59	499.41	499.28	499.19	499.15	499.17	499.23	499.33	499.10	498.91	498.78	498.70	498.68	498.72	498.81	498.95	499.13	499.33	499.19	499.07	498.98	498.93	498.91	498.93	498.99	499.08	499.20	499.33	499.11	498.90	498.71	498.56	498.43	498.34	498.29	498.27	498.29	498.33	498.04	497.78	497.58	497.45	497.40	497.43	497.54	497.73	498	498.33	498.35	498.42	498.54	498.71	498.92	499.17	499.45	499.74	500.04	500.33	500.25	500.15	500.07	500	499.96	499.96	499.99	500.07	500.18	500.33	500.15	500	499.89	499.83	499.81	499.84	499.91	500.02	500.17	500.33	500.15	500.01	499.91	499.88	499.92	500.03	500.24	500.52	500.89	501.34	501.47	501.66	501.90	502.20	502.53	502.90	503.28	503.65	504.01	504.34	504.25	504.13	503.99	503.84	503.68	503.54	503.43	503.36	503.32	503.34	503.03	502.78	502.61	502.51	502.49	502.55	502.67	502.85	503.08	503.34	503.24	503.15	503.08	503.04	503.01	503.02	503.05	503.12	503.21	503.34	503.11	502.93	502.79	502.70	502.67	502.71	502.80	502.94	503.12	503.34	503.20	503.09	503.01	502.96	502.94	502.96	503.01	503.09	503.20	503.34	503.12	502.94	502.79	502.70	502.66	502.69	502.77	502.91	503.10	503.34	503.24	503.18	503.16	503.19	503.28	503.41	503.58	503.80	504.06	504.34	504.27	504.23	504.22	504.25	504.33	504.45	504.62	504.83	505.07	505.34	505.25	505.17	505.12	505.09	505.08	505.10	505.14	505.19	505.26	505.34	505.05	504.77	504.52	504.32	504.17	504.07	504.04	504.08	504.18	504.34	504.18	504.08	504.05	504.08	504.18	504.33	504.53	504.78	505.05	505.34	505.26	505.18	505.12	505.07	505.04	505.04	505.07	505.13	505.22	505.34	505.11	504.92	504.77	504.68	504.65	504.69	504.78	504.92	505.12	505.34	505.21	505.11	505.03	504.98	504.97	504.99	505.04	505.11	505.21	505.34	505.11	504.91	504.75	504.64	504.60	504.62	504.71	504.86	505.08	505.34	505.27	505.24	505.26	505.32	505.43	505.57	505.74	505.93	506.13	506.34	506.16	505.99	505.82	505.66	505.53	505.43	505.36	505.32	505.31	505.34	505.01	504.72	504.48	504.29	504.15	504.08	504.06	504.10	504.20	504.34	504.15	504	503.92	503.91	503.97	504.10	504.32	504.60	504.94	505.34	505.40	505.50	505.65	505.83	506.05	506.29	506.55	506.82	507.09	507.34	507.20	507.04	506.88	506.72	506.58	506.46	506.37	506.32	506.31	506.34	506.03	505.78	505.59	505.47	505.43	505.47	505.59	505.78	506.03	506.34	506.32	506.34	506.42	506.55	506.73	506.97	507.26	507.59	507.95	508.34	508.37	508.41	508.47	508.55	508.65	508.77	508.90	509.05	509.20	509.34	509.10	508.87	508.65	508.45	508.29	508.18	508.13	508.13	508.20	508.34	508.17	508.07	508.06	508.14	508.32	508.59	508.94	509.36	509.84	510.34	510.48	510.63	510.78	510.91	511.04	511.15	511.24	511.30	511.33	511.34	510.95	510.55	510.17	509.82	509.54	509.32	509.19	509.15	509.20	509.34	509.17	509.08	509.06	509.11	509.23	509.40	509.61	509.85	510.10	510.34	510.18	510	509.81	509.64	509.48	509.36	509.27	509.24	509.26	509.34	509.07	508.85	508.70	508.61	508.60	508.65	508.77	508.93	509.12	509.34	509.16	508.97	508.80	508.64	508.51	508.40	508.33	508.29	508.30	508.34	508	507.70	507.44	507.25	507.11	507.04	507.03	507.08	507.19	507.34	507.11	506.91	506.75	506.64	506.59	506.60	506.68	506.83	507.06	507.34	507.25	507.22	507.24	507.34	507.50	507.73	508.04	508.41	508.85	509.34	509.45	509.60	509.81	510.07	510.41	510.83	511.33	511.92	512.59	513.34	513.75	514.22	514.77	515.42	516.16	517	517.94	518.98	520.12	521.35	522.24	523.23	524.31	525.51	526.83	528.27	529.85	531.56	533.40	535.36	537	538.73	540.56	542.48	544.49	546.57	548.71	550.91	553.13	555.37	557.19	559	560.79	562.58	564.37	566.16	567.95	569.75	571.56	573.38	574.80	576.24	577.70	579.20	580.76	582.37	584.05	585.78	587.57	589.39	590.85	592.34	593.87	595.43	597.03	598.66	600.32	602	603.70	605.40	606.70	608	609.29	610.58	611.88	613.19	614.50	615.81	617.12	618.41	619.29	620.15	620.99	621.81	622.63	623.43	624.21	624.98	625.72	626.42	626.70	626.94	627.16	627.35	627.54	627.72	627.89	628.07	628.25	628.42	628.21	628.01	627.83	627.67	627.55	627.47	627.42	627.40	627.41	627.42	627.06	626.69	626.33	625.96	625.59	625.21	624.81	624.38	623.92	623.42	622.49	621.52	620.52	619.51	618.49	617.46	616.44	615.42	614.41	613.41	612.04	610.69	609.38	608.11	606.88	605.70	604.57	603.48	602.43	601.40	600.02	598.67	597.37	596.11	594.90	593.74	592.61	591.52	590.45	589.39	587.95	586.52	585.11	583.70	582.31	580.93	579.55	578.17	576.78	575.38	573.59	571.82	570.08	568.39	566.75	565.16	563.64	562.17	560.75	559.37	557.63	555.93	554.27	552.65	551.07	549.50	547.95	546.42	544.89	543.36	541.46	539.59	537.80	536.10	534.50	533.03	531.67	530.45	529.35	528.35	527.07	525.89	524.81	523.81	522.88	521.99	521.11	520.22	519.31	518.35	516.94	515.51	514.08	512.66	511.27	509.93	508.66	507.47	506.36	505.34	504.01	502.80	501.71	500.73	499.85	499.06	498.34	497.65	496.99	496.33	495.27	494.22	493.18	492.18	491.22	490.31	489.46	488.68	487.97	487.33	486.37	485.50	484.73	484.07	483.49	482.98	482.53	482.12	481.72	481.32	480.52	479.72	478.92	478.15	477.40	476.68	476.01	475.39	474.82	474.32	473.49	472.76	472.12	471.59	471.17	470.85	470.62	470.46	470.37	470.31	469.91	469.55	469.24	468.97	468.75	468.58	468.45	468.37	468.33	468.31	467.94	467.61	467.33	467.08	466.88	466.72	466.60	466.49	466.40	466.31	465.85	465.40	464.98	464.59	464.24	463.94	463.70	463.52	463.39	463.31	462.91	462.57	462.30	462.11	461.99	461.93	461.95	462.02	462.14	462.31	462.14	462.01	461.94	461.93	461.99	462.12	462.33	462.60	462.93	463.31	463.37	463.46	463.60	463.78	464	464.24	464.50	464.78	465.05	465.31	465.19	465.07	464.96	464.86	464.80	464.79	464.83	464.93	465.09	465.31	465.22	465.20	465.24	465.35	465.54	465.79	466.10	466.47	466.87	467.31	467.41	467.53	467.69	467.89	468.15	468.46	468.84	469.27	469.77	470.31	470.54	470.81	471.12	471.49	471.89	472.33	472.80	473.29	473.80	474.32	474.47	474.63	474.80	475.01	475.25	475.55	475.90	476.32	476.79	477.32	477.53	477.79	478.10	478.45	478.85	479.29	479.77	480.27	480.79	481.32	481.50	481.70	481.92	482.19	482.52	482.92	483.40	483.96	484.61	485.32	485.75	486.23	486.77	487.36	487.99	488.65	489.33	490.01	490.68	491.33	491.58	491.81	492.02	492.23	492.46	492.72	493.03	493.40	493.83	494.33	494.54	494.81	495.16	495.59	496.09	496.66	497.28	497.94	498.63	499.33	499.67	500	500.33	500.68	501.04	501.42	501.84	502.30	502.80	503.34	503.55	503.81	504.12	504.47	504.88	505.33	505.81	506.32	506.83	507.34	507.47	507.57	507.66	507.73	507.80	507.88	507.96	508.06	508.19	508.34	508.16	508.02	507.93	507.91	507.97	508.10	508.31	508.60	508.94	509.34	509.41	509.52	509.66	509.83	510.03	510.26	510.52	510.78	511.06	511.34	511.26	511.17	511.10	511.05	511.02	511.03	511.06	511.13	511.23	511.34	511.11	510.90	510.72	510.56	510.44	510.36	510.31	510.29	510.31	510.34	510.03	509.75	509.50	509.30	509.16	509.08	509.06	509.10	509.20	509.34	509.16	509.02	508.93	508.88	508.88	508.92	508.99	509.09	509.21	509.34	509.11	508.88	508.68	508.51	508.37	508.28	508.23	508.23	508.27	508.34	508.08	507.84	507.65	507.50	507.39	507.32	507.29	507.28	507.30	507.34	507.02	506.72	506.47	506.26	506.10	506.02	506	506.05	506.17	506.34	506.19	506.08	506.02	506.01	506.03	506.08	506.15	506.23	506.29	506.34	505.99	505.62	505.25	504.88	504.53	504.21	503.92	503.68	503.49	503.34	502.86	502.44	502.08	501.78	501.56	501.41	501.31	501.27	501.29	501.34	501.05	500.80	500.61	500.48	500.42	500.45	500.55	500.74	501	501.34	501.35	501.43	501.57	501.76	501.99	502.25	502.54	502.82	503.09	503.34	503.17	502.96	502.73	502.49	502.24	502.01	501.79	501.60	501.45	501.34	500.89	500.51	500.20	499.97	499.83	499.78	499.82	499.93	500.10	500.33	500.23	500.18	500.17	500.21	500.29	500.43	500.61	500.82	501.07	501.34	501.24	501.16	501.11	501.08	501.07	501.09	501.13	501.19	501.26	501.34	501.05	500.77	500.53	500.33	500.17	500.08	500.05	500.08	500.18	500.33	500.17	500.07	500.03	500.05	500.14	500.29	500.49	500.74	501.03	501.34	501.29	501.25	501.25	501.28	501.35	501.46	501.62	501.82	502.06	502.34	502.27	502.23	502.23	502.28	502.37	502.51	502.68	502.88	503.10	503.34	503.20	503.08	502.98	502.91	502.87	502.88	502.92	503.02	503.16	503.34	503.18	503.08	503.03	503.04	503.12	503.26	503.46	503.71	504.01	504.34	504.31	504.31	504.34	504.39	504.48	504.60	504.74	504.92	505.12	505.34	505.19	505.07	504.97	504.91	504.89	504.91	504.97	505.07	505.19	505.34	505.12	504.93	504.75	504.60	504.48	504.40	504.34	504.31	504.31	504.34	504.01	503.71	503.45	503.24	503.10	503.01	503	503.05	503.17	503.34	503.18	503.09	503.05	503.07	503.16	503.30	503.50	503.74	504.03	504.34	504.29	504.27	504.28	504.32	504.39	504.51	504.66	504.85	505.08	505.34	505.25	505.19	505.17	505.20	505.28	505.40	505.58	505.80	506.06	506.34	506.27	506.23	506.22	506.25	506.32	506.43	506.59	506.80	507.05	507.34	507.29	507.29	507.34	507.45	507.63	507.87	508.17	508.52	508.92	509.34	509.41	509.49	509.59	509.69	509.81	509.93	510.05	510.16	510.26	510.34	510.03	509.71	509.40	509.11	508.85	508.64	508.48	508.37	508.33	508.34	508.04	507.80	507.63	507.54	507.52	507.58	507.70	507.87	508.09	508.34	508.23	508.15	508.08	508.04	508.03	508.04	508.08	508.15	508.24	508.34	508.08	507.85	507.64	507.47	507.35	507.27	507.23	507.23	507.27	507.34	507.06	506.81	506.60	506.43	506.30	506.22	506.19	506.21	506.26	506.34	506.07	505.83	505.63	505.46	505.34	505.26	505.23	505.23	505.27	505.34	505.05	504.79	504.57	504.40	504.27	504.19	504.16	504.18	504.24	504.34	504.08	503.86	503.68	503.53	503.42	503.35	503.31	503.30	503.32	503.34	502.99	502.65	502.34	502.05	501.80	501.60	501.45	501.35	501.31	501.34	501.04	500.82	500.69	500.65	500.72	500.88	501.14	501.48	501.88	502.34	502.44	502.57	502.70	502.84	502.98	503.10	503.20	503.28	503.32	503.34	502.95	502.55	502.17	501.83	501.54	501.32	501.19	501.15	501.20	501.34	501.18	501.10	501.09	501.16	501.28	501.46	501.66	501.89	502.11	502.34	502.17	502	501.84	501.71	501.63	501.61	501.66	501.80	502.03	502.34	502.35	502.46	502.64	502.91	503.25	503.64	504.07	504.50	504.94	505.34	505.32	505.26	505.16	505.03	504.89	504.74	504.60	504.47	504.39	504.34	503.96	503.65	503.42	503.28	503.23	503.29	503.44	503.67	503.98	504.34	504.36	504.43	504.54	504.69	504.88	505.11	505.37	505.67	505.99	506.34	506.32	506.31	506.33	506.39	506.47	506.59	506.74	506.92	507.12	507.34	507.18	507.04	506.93	506.85	506.81	506.82	506.88	506.99	507.15	507.34	507.17	507.04	506.94	506.88	506.86	506.89	506.96	507.06	507.19	507.34	507.11	506.91	506.74	506.62	506.56	506.56	506.65	506.80	507.04	507.34	507.30	507.31	507.39	507.53	507.73	507.98	508.28	508.61	508.97	509.34	509.30	509.24	509.18	509.13	509.10	509.08	509.10	509.14	509.22	509.34	509.07	508.84	508.66	508.54	508.48	508.51	508.61	508.78	509.03	509.34	509.28	509.27	509.31	509.42	509.58	509.81	510.11	510.47	510.88	511.34	511.42	511.53	511.68	511.88	512.14	512.45	512.83	513.27	513.78	514.34	514.55	514.81	515.14	515.56	516.08	516.71	517.45	518.31	519.27	520.35	521.10	521.94	522.89	523.93	525.08	526.34	527.70	529.16	530.72	532.36	533.66	535.03	536.49	538.04	539.68	541.43	543.28	545.23	547.26	549.37	551.12	552.93	554.78	556.67	558.59	560.54	562.51	564.48	566.44	568.38	569.89	571.36	572.82	574.26	575.72	577.19	578.68	580.21	581.78	583.39	584.64	585.94	587.29	588.70	590.19	591.73	593.34	594.99	596.69	598.40	599.72	601.05	602.37	603.69	605.01	606.32	607.63	608.91	610.18	611.41	612.22	612.98	613.73	614.45	615.15	615.84	616.51	617.17	617.80	618.41	618.62	618.80	618.97	619.14	619.33	619.52	619.73	619.95	620.18	620.41	620.27	620.13	620	619.89	619.78	619.70	619.62	619.55	619.49	619.41	618.96	618.50	618.06	617.62	617.21	616.82	616.46	616.10	615.76	615.41	614.68	613.94	613.20	612.44	611.67	610.88	610.07	609.22	608.33	607.41	606.07	604.70	603.33	601.96	600.61	599.29	598	596.76	595.56	594.40	592.90	591.45	590.05	588.70	587.41	586.16	584.94	583.75	582.57	581.39	579.83	578.30	576.79	575.31	573.88	572.50	571.16	569.87	568.61	567.38	565.79	564.24	562.71	561.22	559.75	558.29	556.83	555.36	553.88	552.37	550.46	548.56	546.68	544.85	543.07	541.37	539.75	538.20	536.74	535.36	533.66	532.05	530.52	529.08	527.71	526.39	525.11	523.85	522.60	521.35	519.70	518.07	516.48	514.95	513.47	512.08	510.76	509.54	508.40	507.34	505.97	504.68	503.49	502.38	501.33	500.32	499.34	498.36	497.36	496.33	494.88	493.41	491.95	490.52	489.12	487.79	486.53	485.36	484.29	483.32	482.08	480.97	480.01	479.19	478.50	477.92	477.44	477.03	476.67	476.32	475.58	474.84	474.12	473.40	472.68	471.98	471.29	470.61	469.95	469.31	468.31	467.36	466.48	465.67	464.94	464.28	463.70	463.19	462.73	462.31	461.54	460.82	460.16	459.56	459.02	458.55	458.15	457.81	457.53	457.31	456.76	456.28	455.89	455.58	455.36	455.22	455.15	455.16	455.21	455.30	455.05	454.83	454.65	454.50	454.40	454.33	454.29	454.28	454.29	454.30	453.95	453.61	453.31	453.03	452.80	452.61	452.47	452.37	452.31	452.30	451.96	451.67	451.44	451.30	451.24	451.28	451.40	451.62	451.92	452.30	452.38	452.54	452.77	453.08	453.47	453.93	454.45	455.03	455.65	456.31	456.60	456.92	457.26	457.62	458.01	458.42	458.86	459.33	459.81	460.31	460.45	460.60	460.78	461	461.26	461.57	461.94	462.35	462.81	463.31	463.48	463.69	463.95	464.26	464.63	465.06	465.55	466.09	466.68	467.31	467.61	467.95	468.33	468.75	469.22	469.75	470.33	470.95	471.62	472.32	472.67	473.05	473.46	473.90	474.38	474.90	475.45	476.04	476.67	477.32	477.63	477.96	478.33	478.74	479.20	479.72	480.29	480.92	481.60	482.32	482.72	483.16	483.63	484.16	484.73	485.36	486.03	486.75	487.52	488.33	488.80	489.31	489.86	490.47	491.13	491.85	492.64	493.49	494.39	495.33	495.94	496.58	497.25	497.94	498.65	499.38	500.12	500.86	501.61	502.34	502.69	503.02	503.34	503.68	504.03	504.41	504.82	505.28	505.79	506.34	506.57	506.86	507.20	507.61	508.08	508.63	509.23	509.89	510.60	511.34	511.74	512.16	512.60	513.07	513.56	514.07	514.61	515.18	515.76	516.35	516.58	516.81	517.06	517.33	517.62	517.93	518.26	518.61	518.98	519.35	519.36	519.37	519.39	519.43	519.50	519.60	519.74	519.91	520.11	520.35	520.25	520.18	520.15	520.17	520.24	520.37	520.55	520.77	521.05	521.35	521.31	521.30	521.32	521.38	521.47	521.59	521.75	521.93	522.14	522.35	522.20	522.05	521.91	521.78	521.67	521.57	521.49	521.43	521.38	521.35	520.96	520.58	520.24	519.95	519.70	519.51	519.39	519.32	519.31	519.35	519.06	518.81	518.61	518.46	518.36	518.29	518.27	518.28	518.31	518.35	518.02	517.71	517.43	517.17	516.94	516.75	516.60	516.49	516.41	516.35	515.93	515.54	515.17	514.83	514.52	514.24	513.98	513.75	513.54	513.34	512.79	512.27	511.78	511.36	511	510.72	510.51	510.38	510.33	510.34	510.03	509.79	509.60	509.46	509.37	509.33	509.31	509.31	509.33	509.34	508.97	508.61	508.27	507.96	507.70	507.50	507.35	507.28	507.28	507.34	507.09	506.91	506.79	506.75	506.77	506.84	506.95	507.08	507.22	507.34	507.06	506.75	506.43	506.10	505.76	505.43	505.12	504.83	504.57	504.34	503.77	503.26	502.83	502.49	502.24	502.09	502.03	502.06	502.17	502.34	502.17	502.06	501.99	501.96	501.97	502.01	502.07	502.15	502.24	502.34	502.04	501.76	501.48	501.23	501	500.80	500.64	500.51	500.41	500.33	499.91	499.51	499.16	498.86	498.61	498.43	498.31	498.26	498.27	498.33	498.08	497.89	497.78	497.75	497.81	497.96	498.20	498.51	498.90	499.33	499.43	499.57	499.74	499.94	500.16	500.40	500.65	500.89	501.12	501.34	501.15	500.95	500.75	500.56	500.40	500.28	500.21	500.19	500.24	500.33	500.12	499.97	499.89	499.90	499.98	500.14	500.37	500.65	500.98	501.34	501.33	501.35	501.38	501.43	501.51	501.62	501.76	501.92	502.12	502.34	502.21	502.11	502.06	502.07	502.14	502.27	502.46	502.71	503.01	503.34	503.32	503.33	503.37	503.45	503.55	503.67	503.82	503.99	504.16	504.34	504.14	503.94	503.75	503.59	503.45	503.35	503.29	503.27	503.28	503.34	503.05	502.82	502.64	502.52	502.48	502.51	502.62	502.79	503.04	503.34	503.31	503.34	503.42	503.57	503.76	504.01	504.30	504.63	504.98	505.34	505.33	505.31	505.30	505.29	505.29	505.29	505.29	505.30	505.32	505.34	504.99	504.67	504.38	504.15	503.98	503.89	503.88	503.95	504.11	504.34	504.27	504.26	504.33	504.47	504.68	504.94	505.24	505.59	505.96	506.34	506.35	506.37	506.40	506.46	506.54	506.64	506.78	506.95	507.14	507.34	507.18	507.03	506.89	506.77	506.67	506.58	506.50	506.44	506.38	506.34	505.93	505.56	505.23	504.97	504.79	504.70	504.71	504.82	505.04	505.34	505.34	505.42	505.56	505.76	506	506.27	506.56	506.84	507.10	507.34	507.17	506.97	506.77	506.58	506.41	506.28	506.20	506.18	506.23	506.34	506.14	505.99	505.91	505.89	505.92	505.98	506.07	506.17	506.26	506.34	506.02	505.68	505.35	505.03	504.75	504.52	504.35	504.26	504.26	504.34	504.12	504	503.96	504.02	504.15	504.34	504.57	504.83	505.09	505.34	505.18	504.98	504.76	504.52	504.28	504.04	503.81	503.62	503.46	503.34	502.89	502.51	502.21	501.99	501.86	501.82	501.86	501.97	502.13	502.34	502.19	502.07	501.98	501.93	501.90	501.91	501.96	502.05	502.17	502.34	502.16	502.03	501.96	501.96	502.03	502.17	502.38	502.66	502.98	503.34	503.34	503.37	503.43	503.51	503.61	503.73	503.87	504.02	504.18	504.34	504.11	503.90	503.70	503.52	503.38	503.28	503.23	503.22	503.26	503.34	503.07	502.86	502.69	502.59	502.55	502.58	502.68	502.84	503.06	503.34	503.28	503.27	503.32	503.44	503.62	503.86	504.17	504.52	504.92	505.34	505.40	505.47	505.56	505.66	505.77	505.88	506	506.12	506.23	506.34	506.06	505.78	505.52	505.30	505.13	505.02	504.98	505.02	505.14	505.34	505.23	505.19	505.24	505.36	505.56	505.83	506.15	506.53	506.93	507.34	507.38	507.41	507.46	507.51	507.58	507.68	507.80	507.95	508.13	508.34	508.20	508.10	508.04	508.05	508.12	508.25	508.45	508.70	509.01	509.34	509.31	509.30	509.32	509.37	509.45	509.56	509.71	509.89	510.10	510.34	510.21	510.11	510.04	510.04	510.09	510.21	510.40	510.65	510.97	511.34	511.36	511.41	511.51	511.65	511.84	512.08	512.35	512.66	513	513.34	513.28	513.22	513.16	513.12	513.10	513.09	513.12	513.17	513.24	513.34	513.05	512.77	512.52	512.32	512.17	512.08	512.05	512.08	512.18	512.34	512.14	511.98	511.89	511.86	511.91	512.04	512.26	512.55	512.91	513.34	513.40	513.51	513.67	513.88	514.16	514.49	514.88	515.32	515.81	516.35	516.49	516.66	516.88	517.15	517.48	517.88	518.37	518.94	519.60	520.35	520.76	521.25	521.85	522.56	523.38	524.33	525.41	526.61	527.93	529.35	530.46	531.65	532.94	534.32	535.79	537.36	539.01	540.73	542.52	544.36	545.83	547.32	548.84	550.39	551.98	553.60	555.25	556.94	558.65	560.37	561.71	563.06	564.43	565.84	567.30	568.81	570.38	572	573.67	575.38	576.73	578.10	579.51	580.97	582.46	583.99	585.56	587.15	588.77	590.39	591.62	592.86	594.10	595.36	596.64	597.95	599.29	600.64	602.02	603.40	604.39	605.39	606.38	607.39	608.40	609.42	610.43	611.44	612.44	613.41	613.96	614.49	614.99	615.49	615.98	616.47	616.96	617.45	617.93	618.41	618.50	618.58	618.65	618.74	618.83	618.94	619.06	619.18	619.30	619.41	619.14	618.87	618.61	618.36	618.15	617.95	617.79	617.65	617.53	617.41	616.93	616.45	615.97	615.50	615.03	614.56	614.07	613.55	613	612.41	611.39	610.32	609.23	608.11	606.98	605.85	604.72	603.60	602.49	601.40	599.95	598.54	597.19	595.89	594.66	593.50	592.40	591.36	590.36	589.39	588.07	586.78	585.52	584.30	583.10	581.93	580.78	579.65	578.52	577.39	575.87	574.36	572.88	571.43	570.01	568.63	567.28	565.96	564.66	563.38	561.72	560.09	558.50	556.95	555.44	553.97	552.53	551.12	549.74	548.37	546.62	544.91	543.25	541.65	540.11	538.63	537.22	535.87	534.58	533.36	531.79	530.31	528.91	527.61	526.40	525.27	524.21	523.22	522.27	521.35	520.05	518.78	517.55	516.33	515.14	513.97	512.80	511.64	510.49	509.34	507.80	506.30	504.86	503.50	502.22	501.04	499.96	498.99	498.11	497.33	496.25	495.26	494.38	493.61	492.92	492.31	491.76	491.26	490.79	490.33	489.48	488.65	487.84	487.08	486.35	485.66	485.01	484.41	483.85	483.32	482.44	481.62	480.86	480.17	479.55	479	478.50	478.07	477.67	477.32	476.61	475.96	475.37	474.86	474.42	474.06	473.78	473.57	473.42	473.32	472.87	472.47	472.11	471.79	471.51	471.25	471.01	470.77	470.54	470.31	469.71	469.12	468.59	468.12	467.74	467.45	467.27	467.18	467.20	467.31	467.12	467.01	466.97	466.99	467.04	467.12	467.21	467.28	467.31	467.31	466.89	466.44	465.99	465.55	465.15	464.81	464.54	464.37	464.29	464.31	464.06	463.90	463.86	463.90	464.04	464.24	464.48	464.76	465.04	465.31	465.19	465.06	464.94	464.82	464.74	464.71	464.74	464.85	465.04	465.31	465.30	465.37	465.53	465.77	466.09	466.48	466.91	467.37	467.84	468.31	468.40	468.48	468.56	468.66	468.79	468.96	469.20	469.50	469.87	470.31	470.46	470.68	470.97	471.33	471.76	472.23	472.74	473.27	473.80	474.32	474.45	474.55	474.65	474.76	474.89	475.06	475.27	475.55	475.90	476.32	476.44	476.64	476.91	477.25	477.67	478.14	478.66	479.21	479.77	480.32	480.49	480.63	480.77	480.90	481.04	481.21	481.41	481.66	481.96	482.32	482.38	482.50	482.71	482.99	483.37	483.83	484.37	484.97	485.63	486.33	486.68	487.06	487.47	487.90	488.37	488.88	489.43	490.02	490.66	491.33	491.67	492.04	492.45	492.90	493.40	493.94	494.51	495.10	495.72	496.33	496.58	496.82	497.06	497.30	497.57	497.85	498.17	498.52	498.91	499.33	499.44	499.59	499.80	500.08	500.44	500.88	501.39	501.98	502.63	503.34	503.72	504.13	504.57	505.05	505.56	506.09	506.65	507.21	507.78	508.34	508.52	508.70	508.86	509.03	509.21	509.40	509.61	509.84	510.08	510.34	510.25	510.18	510.15	510.15	510.21	510.32	510.49	510.72	511	511.34	511.36	511.44	511.57	511.77	512.04	512.38	512.79	513.26	513.78	514.34	514.57	514.82	515.09	515.39	515.71	516.04	516.37	516.71	517.04	517.35	517.26	517.15	517.03	516.90	516.78	516.66	516.56	516.47	516.40	516.35	515.94	515.56	515.22	514.92	514.68	514.50	514.37	514.31	514.30	514.34	514.07	513.85	513.68	513.59	513.57	513.61	513.72	513.89	514.10	514.34	514.23	514.14	514.05	513.97	513.89	513.81	513.72	513.61	513.49	513.34	512.80	512.25	511.71	511.20	510.72	510.31	509.95	509.67	509.47	509.34	508.91	508.56	508.29	508.11	508.01	507.97	508	508.08	508.20	508.34	508.12	507.91	507.72	507.56	507.43	507.33	507.28	507.26	507.28	507.34	507.05	506.80	506.60	506.45	506.34	506.28	506.25	506.26	506.30	506.34	506.01	505.70	505.40	505.13	504.89	504.70	504.54	504.43	504.36	504.34	503.98	503.66	503.41	503.22	503.10	503.04	503.04	503.09	503.20	503.34	503.13	502.96	502.83	502.75	502.73	502.75	502.83	502.96	503.13	503.34	503.20	503.09	503.02	502.98	502.98	503.02	503.08	503.16	503.25	503.34	503.04	502.75	502.47	502.21	501.97	501.77	501.60	501.47	501.38	501.34	500.95	500.61	500.33	500.12	499.99	499.92	499.93	500.01	500.14	500.33	500.20	500.11	500.07	500.10	500.18	500.32	500.52	500.76	501.04	501.34	501.28	501.23	501.20	501.19	501.20	501.21	501.24	501.27	501.31	501.34	500.98	500.64	500.31	500.01	499.76	499.56	499.41	499.33	499.30	499.33	499.05	498.82	498.66	498.57	498.55	498.60	498.71	498.88	499.09	499.33	499.23	499.17	499.14	499.16	499.23	499.35	499.53	499.75	500.03	500.33	500.30	500.30	500.33	500.40	500.51	500.64	500.80	500.97	501.16	501.34	501.13	500.93	500.74	500.57	500.42	500.32	500.25	500.24	500.26	500.33	500.07	499.86	499.71	499.62	499.59	499.63	499.73	499.89	500.09	500.33	500.23	500.16	500.14	500.16	500.24	500.37	500.55	500.78	501.04	501.34	501.27	501.22	501.20	501.18	501.19	501.21	501.23	501.27	501.30	501.34	501	500.67	500.38	500.14	499.96	499.86	499.85	499.92	500.09	500.33	500.28	500.30	500.39	500.54	500.76	501.02	501.33	501.65	501.99	502.34	502.30	502.26	502.24	502.25	502.30	502.40	502.55	502.76	503.02	503.34	503.32	503.34	503.41	503.51	503.63	503.78	503.93	504.08	504.22	504.34	504.06	503.78	503.50	503.26	503.07	502.94	502.89	502.94	503.09	503.34	503.30	503.36	503.52	503.77	504.10	504.49	504.93	505.40	505.87	506.34	506.41	506.45	506.49	506.52	506.57	506.63	506.74	506.89	507.09	507.34	507.28	507.27	507.34	507.48	507.69	507.96	508.27	508.62	508.98	509.34	509.31	509.27	509.22	509.17	509.13	509.11	509.11	509.15	509.22	509.34	509.13	508.98	508.90	508.90	508.97	509.12	509.35	509.64	509.97	510.34	510.36	510.39	510.45	510.52	510.62	510.73	510.87	511.02	511.18	511.34	511.14	510.94	510.76	510.61	510.49	510.40	510.34	510.31	510.32	510.34	510.02	509.72	509.47	509.27	509.13	509.05	509.04	509.08	509.19	509.34	509.16	509.02	508.93	508.89	508.89	508.92	509	509.09	509.21	509.34	509.10	508.87	508.67	508.49	508.36	508.27	508.22	508.22	508.26	508.34	508.08	507.85	507.66	507.51	507.40	507.33	507.29	507.29	507.30	507.34	507.02	506.72	506.45	506.24	506.08	505.99	505.97	506.03	506.15	506.34	506.21	506.14	506.13	506.18	506.29	506.45	506.65	506.87	507.10	507.34	507.19	507.04	506.89	506.74	506.62	506.51	506.43	506.37	506.35	506.34	505.98	505.64	505.35	505.09	504.88	504.70	504.57	504.47	504.39	504.34	503.92	503.53	503.17	502.86	502.60	502.41	502.28	502.23	502.25	502.34	502.11	501.96	501.89	501.89	501.98	502.14	502.37	502.65	502.98	503.34	503.34	503.35	503.39	503.46	503.55	503.67	503.81	503.97	504.15	504.34	504.15	503.97	503.81	503.67	503.55	503.46	503.39	503.35	503.34	503.34	502.98	502.66	502.38	502.15	502	501.92	501.91	501.98	502.13	502.34	502.22	502.17	502.17	502.22	502.33	502.48	502.66	502.88	503.10	503.34	503.19	503.06	502.94	502.86	502.81	502.81	502.86	502.96	503.12	503.34	503.22	503.15	503.14	503.18	503.28	503.43	503.62	503.84	504.08	504.34	504.21	504.09	503.99	503.91	503.87	503.87	503.91	504	504.15	504.34	504.19	504.10	504.06	504.08	504.17	504.32	504.52	504.77	505.04	505.34	505.25	505.17	505.11	505.05	505.03	505.03	505.06	505.12	505.21	505.34	505.10	504.89	504.73	504.63	504.58	504.61	504.70	504.86	505.07	505.34	505.24	505.17	505.15	505.17	505.25	505.37	505.55	505.77	506.04	506.34	506.26	506.20	506.18	506.20	506.27	506.38	506.55	506.77	507.04	507.34	507.26	507.20	507.18	507.20	507.26	507.38	507.55	507.77	508.04	508.34	508.25	508.19	508.17	508.18	508.24	508.36	508.53	508.75	509.02	509.34	509.27	509.24	509.25	509.32	509.46	509.68	509.97	510.34	510.80	511.34	511.53	511.79	512.14	512.58	513.12	513.76	514.51	515.36	516.31	517.35	518.03	518.78	519.60	520.48	521.45	522.49	523.60	524.79	526.04	527.35	528.30	529.30	530.36	531.50	532.72	534.05	535.47	537	538.63	540.36	541.77	543.26	544.84	546.52	548.30	550.17	552.12	554.15	556.24	558.37	560.12	561.88	563.65	565.43	567.23	569.04	570.86	572.69	574.54	576.39	577.83	579.28	580.76	582.27	583.83	585.44	587.10	588.82	590.59	592.40	593.83	595.29	596.76	598.26	599.78	601.31	602.84	604.38	605.90	607.41	608.49	609.56	610.61	611.67	612.74	613.83	614.94	616.08	617.24	618.41	619.21	620.02	620.83	621.66	622.49	623.32	624.14	624.94	625.71	626.42	626.69	626.90	627.07	627.19	627.28	627.34	627.38	627.41	627.42	627.42	627.03	626.65	626.27	625.93	625.61	625.32	625.06	624.83	624.62	624.42	623.84	623.28	622.73	622.20	621.69	621.20	620.74	620.29	619.85	619.41	618.60	617.79	616.99	616.20	615.41	614.63	613.85	613.06	612.25	611.41	610.16	608.88	607.58	606.28	604.97	603.65	602.34	601.02	599.71	598.40	596.71	595.05	593.41	591.83	590.29	588.81	587.38	586.01	584.68	583.39	581.75	580.17	578.64	577.17	575.76	574.41	573.11	571.84	570.60	569.38	567.78	566.20	564.65	563.13	561.63	560.15	558.69	557.25	555.81	554.37	552.55	550.75	549	547.30	545.66	544.08	542.56	541.11	539.71	538.36	536.67	535.04	533.48	532	530.60	529.25	527.97	526.73	525.53	524.35	522.80	521.30	519.84	518.45	517.12	515.85	514.64	513.49	512.39	511.34	509.94	508.60	507.34	506.15	505.04	503.99	503.01	502.08	501.19	500.33	499.11	497.92	496.79	495.71	494.69	493.73	492.81	491.95	491.12	490.33	489.17	488.06	487.01	486.03	485.11	484.25	483.44	482.69	481.99	481.32	480.30	479.33	478.44	477.62	476.89	476.23	475.65	475.15	474.71	474.32	473.59	472.91	472.30	471.75	471.26	470.81	470.40	470.02	469.66	469.31	468.59	467.89	467.23	466.62	466.07	465.59	465.17	464.82	464.53	464.31	463.77	463.30	462.91	462.61	462.39	462.25	462.18	462.18	462.22	462.31	462.05	461.84	461.69	461.59	461.56	461.59	461.69	461.84	462.06	462.31	462.23	462.19	462.20	462.26	462.36	462.50	462.68	462.88	463.09	463.31	463.16	463.02	462.91	462.83	462.78	462.79	462.84	462.95	463.11	463.31	463.18	463.11	463.09	463.12	463.21	463.36	463.55	463.78	464.03	464.31	464.23	464.17	464.14	464.15	464.20	464.31	464.47	464.69	464.97	465.31	465.34	465.43	465.59	465.82	466.12	466.48	466.89	467.35	467.83	468.31	468.43	468.54	468.63	468.72	468.80	468.89	468.97	469.07	469.18	469.31	469.12	468.96	468.88	468.89	469.01	469.23	469.58	470.05	470.63	471.32	471.72	472.20	472.75	473.35	473.99	474.66	475.35	476.03	476.69	477.32	477.55	477.74	477.91	478.06	478.21	478.37	478.56	478.77	479.03	479.32	479.29	479.31	479.37	479.50	479.68	479.91	480.20	480.54	480.92	481.32	481.39	481.49	481.63	481.82	482.06	482.37	482.75	483.21	483.73	484.32	484.62	484.96	485.37	485.83	486.35	486.90	487.49	488.10	488.71	489.33	489.57	489.80	490.03	490.27	490.53	490.81	491.13	491.49	491.89	492.33	492.45	492.61	492.81	493.06	493.36	493.70	494.08	494.48	494.90	495.33	495.40	495.48	495.56	495.67	495.82	496.01	496.25	496.55	496.91	497.33	497.46	497.65	497.90	498.23	498.63	499.10	499.61	500.17	500.75	501.34	501.56	501.78	501.98	502.18	502.37	502.56	502.75	502.94	503.14	503.34	503.18	503.04	502.92	502.84	502.81	502.82	502.89	503	503.15	503.34	503.19	503.08	502.99	502.95	502.94	502.96	503.02	503.10	503.21	503.34	503.11	502.90	502.71	502.56	502.43	502.34	502.29	502.27	502.29	502.34	502.05	501.80	501.58	501.41	501.30	501.23	501.20	501.22	501.27	501.34	501.06	500.79	500.54	500.31	500.10	499.91	499.74	499.58	499.45	499.33	498.87	498.45	498.06	497.74	497.49	497.31	497.21	497.18	497.23	497.33	497.12	496.95	496.83	496.74	496.67	496.62	496.57	496.52	496.44	496.33	495.82	495.28	494.72	494.16	493.60	493.07	492.56	492.10	491.69	491.33	490.66	490.05	489.53	489.10	488.75	488.51	488.35	488.27	488.27	488.33	488.07	487.87	487.73	487.65	487.64	487.68	487.78	487.93	488.12	488.33	488.18	488.05	487.94	487.84	487.75	487.67	487.59	487.51	487.42	487.33	486.85	486.37	485.91	485.49	485.12	484.81	484.57	484.41	484.33	484.32	484.02	483.79	483.64	483.56	483.57	483.63	483.75	483.92	484.11	484.32	484.17	484.03	483.91	483.82	483.77	483.77	483.82	483.93	484.10	484.32	484.24	484.22	484.27	484.39	484.58	484.85	485.16	485.52	485.92	486.33	486.37	486.41	486.46	486.52	486.60	486.70	486.82	486.96	487.13	487.33	487.18	487.06	487	486.99	487.05	487.17	487.37	487.63	487.95	488.33	488.38	488.48	488.63	488.85	489.12	489.46	489.86	490.31	490.80	491.33	491.51	491.72	491.95	492.21	492.50	492.82	493.17	493.54	493.93	494.33	494.37	494.43	494.52	494.64	494.81	495.02	495.29	495.60	495.95	496.33	496.36	496.41	496.47	496.55	496.65	496.76	496.89	497.03	497.18	497.33	497.13	496.96	496.83	496.76	496.78	496.89	497.10	497.41	497.83	498.33	498.55	498.84	499.20	499.61	500.07	500.55	501.03	501.50	501.94	502.34	502.31	502.22	502.09	501.94	501.78	501.62	501.48	501.38	501.33	501.34	501.04	500.81	500.68	500.64	500.71	500.87	501.13	501.47	501.88	502.34	502.47	502.63	502.83	503.08	503.36	503.68	504.05	504.45	504.88	505.34	505.45	505.58	505.73	505.91	506.12	506.35	506.59	506.85	507.10	507.34	507.19	507.03	506.87	506.71	506.57	506.45	506.36	506.31	506.31	506.34	506.04	505.80	505.61	505.50	505.46	505.50	505.61	505.79	506.04	506.34	506.31	506.34	506.41	506.54	506.73	506.97	507.26	507.60	507.96	508.34	508.35	508.37	508.38	508.39	508.41	508.41	508.41	508.40	508.38	508.34	507.92	507.51	507.13	506.79	506.51	506.30	506.18	506.15	506.20	506.34	506.18	506.09	506.08	506.13	506.25	506.41	506.62	506.85	507.09	507.34	507.21	507.08	506.96	506.86	506.81	506.80	506.84	506.95	507.12	507.34	507.24	507.20	507.22	507.29	507.42	507.58	507.77	507.96	508.16	508.34	508.12	507.87	507.61	507.35	507.10	506.86	506.66	506.50	506.39	506.34	505.97	505.67	505.45	505.33	505.30	505.36	505.51	505.73	506.01	506.34	506.32	506.33	506.36	506.43	506.52	506.64	506.78	506.95	507.14	507.34	507.18	507.04	506.94	506.87	506.85	506.88	506.94	507.05	507.18	507.34	507.13	506.94	506.77	506.63	506.51	506.42	506.36	506.33	506.32	506.34	506	505.69	505.42	505.21	505.06	504.98	504.97	505.03	505.15	505.34	505.20	505.12	505.10	505.14	505.23	505.39	505.58	505.82	506.07	506.34	506.22	506.10	505.99	505.87	505.76	505.66	505.57	505.48	505.41	505.34	504.90	504.48	504.10	503.77	503.51	503.31	503.20	503.16	503.21	503.34	503.16	503.06	503.06	503.14	503.32	503.59	503.93	504.35	504.83	505.34	505.50	505.67	505.86	506.07	506.29	506.51	506.73	506.94	507.15	507.34	507.13	506.92	506.72	506.53	506.38	506.27	506.21	506.20	506.25	506.34	506.10	505.90	505.76	505.69	505.67	505.71	505.80	505.94	506.12	506.34	506.20	506.10	506.04	506.04	506.09	506.21	506.40	506.66	506.97	507.34	507.37	507.45	507.57	507.74	507.95	508.20	508.47	508.75	509.05	509.34	509.24	509.14	509.05	508.98	508.93	508.92	508.95	509.03	509.16	509.34	509.18	509.07	509.02	509.04	509.12	509.26	509.46	509.71	510.01	510.34	510.32	510.34	510.40	510.51	510.67	510.89	511.18	511.52	511.91	512.34	512.43	512.55	512.70	512.88	513.09	513.33	513.57	513.83	514.09	514.34	514.21	514.08	513.95	513.86	513.80	513.80	513.84	513.95	514.12	514.34	514.24	514.19	514.19	514.24	514.35	514.50	514.69	514.89	515.12	515.34	515.19	515.04	514.91	514.81	514.75	514.74	514.79	514.91	515.09	515.34	515.28	515.29	515.37	515.52	515.74	516.01	516.32	516.66	517.01	517.35	517.28	517.20	517.09	516.97	516.83	516.70	516.58	516.47	516.39	516.35	515.96	515.63	515.39	515.23	515.17	515.22	515.37	515.61	515.95	516.35	516.42	516.55	516.71	516.91	517.14	517.38	517.63	517.88	518.12	518.35	518.17	517.99	517.80	517.63	517.49	517.37	517.30	517.27	517.29	517.35	517.06	516.82	516.63	516.49	516.39	516.34	516.32	516.32	516.33	516.35	515.97	515.60	515.22	514.86	514.52	514.21	513.93	513.69	513.49	513.34	512.87	512.46	512.14	511.90	511.76	511.71	511.76	511.89	512.09	512.34	512.26	512.22	512.20	512.21	512.24	512.28	512.32	512.35	512.36	512.34	511.92	511.46	511	510.54	510.09	509.66	509.27	508.91	508.60	508.34	507.75	507.22	506.77	506.42	506.16	506.01	505.96	506	506.13	506.34	506.22	506.16	506.16	506.22	506.34	506.49	506.68	506.89	507.12	507.34	507.15	506.95	506.74	506.52	506.30	506.09	505.89	505.69	505.51	505.34	504.78	504.25	503.75	503.32	502.95	502.66	502.46	502.34	502.30	502.34	502.03	501.79	501.63	501.53	501.51	501.56	501.67	501.84	502.07	502.34	502.22	502.14	502.10	502.12	502.18	502.31	502.49	502.73	503.01	503.34	503.26	503.21	503.17	503.15	503.14	503.16	503.19	503.23	503.28	503.34	502.98	502.63	502.31	502.05	501.85	501.74	501.73	501.82	502.03	502.34	502.32	502.40	502.58	502.86	503.24	503.71	504.27	504.90	505.59	506.34	506.71	507.12	507.58	508.11	508.72	509.43	510.24	511.16	512.20	513.34	514.18	515.12	516.18	517.34	518.62	520	521.48	523.04	524.67	526.35	527.65	528.98	530.34	531.74	533.19	534.70	536.26	537.89	539.59	541.36	542.79	544.28	545.86	547.53	549.29	551.15	553.10	555.12	557.22	559.37	561.16	562.98	564.82	566.70	568.61	570.54	572.49	574.45	576.42	578.39	579.94	581.47	582.99	584.49	586	587.49	588.98	590.47	591.94	593.40	594.45	595.48	596.52	597.56	598.63	599.73	600.85	602.01	603.20	604.40	605.24	606.09	606.96	607.85	608.75	609.68	610.61	611.55	612.49	613.41	613.94	614.44	614.95	615.45	615.95	616.45	616.96	617.46	617.95	618.41	618.48	618.50	618.50	618.46	618.38	618.27	618.12	617.93	617.69	617.41	616.72	616.01	615.30	614.60	613.94	613.32	612.76	612.25	611.80	611.41	610.69	610.03	609.40	608.82	608.26	607.72	607.18	606.63	606.04	605.40	604.35	603.26	602.14	601.01	599.86	598.73	597.61	596.51	595.44	594.40	593.02	591.70	590.42	589.20	588.03	586.90	585.78	584.68	583.55	582.39	580.81	579.19	577.54	575.85	574.13	572.40	570.64	568.88	567.13	565.38	563.28	561.24	559.27	557.41	555.64	553.99	552.44	551	549.65	548.37	546.77	545.25	543.78	542.38	541.02	539.68	538.37	537.05	535.71	534.36	532.59	530.82	529.05	527.29	525.56	523.85	522.17	520.53	518.92	517.35	515.42	513.56	511.76	510.05	508.42	506.87	505.39	503.98	502.64	501.34	499.70	498.12	496.63	495.22	493.89	492.64	491.46	490.36	489.32	488.33	486.99	485.72	484.51	483.36	482.27	481.23	480.22	479.25	478.28	477.32	475.96	474.63	473.31	472.04	470.80	469.60	468.45	467.36	466.31	465.31	463.98	462.73	461.58	460.53	459.58	458.74	458	457.36	456.80	456.31	455.49	454.74	454.07	453.48	452.97	452.52	452.14	451.81	451.54	451.30	450.72	450.20	449.74	449.35	449.03	448.77	448.59	448.45	448.36	448.30	447.88	447.48	447.12	446.78	446.48	446.20	445.94	445.71	445.49	445.30	444.74	444.23	443.78	443.41	443.13	442.95	442.87	442.91	443.05	443.30	443.25	443.30	443.45	443.69	444	444.39	444.82	445.30	445.80	446.30	446.42	446.54	446.67	446.81	446.97	447.16	447.38	447.65	447.95	448.30	448.32	448.39	448.52	448.73	449	449.35	449.76	450.23	450.75	451.30	451.52	451.76	452.04	452.36	452.72	453.13	453.59	454.11	454.68	455.30	455.61	455.97	456.40	456.90	457.47	458.12	458.83	459.61	460.44	461.31	461.83	462.38	462.94	463.51	464.11	464.72	465.35	465.99	466.65	467.31	467.63	467.95	468.31	468.71	469.16	469.66	470.24	470.87	471.57	472.32	472.75	473.21	473.72	474.28	474.87	475.50	476.16	476.86	477.58	478.32	478.72	479.13	479.58	480.07	480.61	481.22	481.89	482.64	483.45	484.32	484.89	485.49	486.14	486.83	487.55	488.29	489.05	489.82	490.58	491.33	491.69	492.04	492.36	492.70	493.04	493.41	493.82	494.27	494.78	495.33	495.58	495.87	496.23	496.65	497.13	497.68	498.28	498.93	499.62	500.33	500.71	501.10	501.51	501.95	502.42	502.92	503.47	504.06	504.68	505.34	505.66	506	506.36	506.74	507.14	507.57	508	508.45	508.90	509.34	509.42	509.49	509.58	509.68	509.83	510.02	510.26	510.56	510.93	511.34	511.45	511.61	511.81	512.07	512.38	512.72	513.10	513.50	513.92	514.34	514.41	514.48	514.57	514.68	514.83	515.03	515.28	515.58	515.94	516.35	516.44	516.57	516.74	516.94	517.18	517.43	517.68	517.93	518.15	518.35	518.14	517.91	517.65	517.38	517.12	516.88	516.67	516.51	516.40	516.35	516	515.72	515.53	515.43	515.41	515.48	515.62	515.82	516.07	516.35	516.28	516.24	516.21	516.20	516.20	516.21	516.24	516.27	516.31	516.35	516.02	515.68	515.36	515.05	514.74	514.45	514.17	513.90	513.62	513.34	512.70	512.07	511.45	510.86	510.32	509.82	509.37	508.98	508.64	508.34	507.73	507.16	506.65	506.20	505.80	505.45	505.13	504.85	504.59	504.34	503.73	503.13	502.54	501.99	501.46	500.97	500.52	500.10	499.70	499.33	498.62	497.93	497.27	496.64	496.04	495.47	494.92	494.38	493.85	493.33	492.44	491.57	490.72	489.92	489.16	488.46	487.83	487.27	486.77	486.33	485.57	484.88	484.25	483.69	483.19	482.75	482.35	481.98	481.64	481.32	480.64	479.98	479.35	478.76	478.21	477.72	477.29	476.91	476.59	476.32	475.72	475.17	474.67	474.22	473.81	473.45	473.13	472.84	472.57	472.32	471.71	471.13	470.60	470.14	469.75	469.46	469.27	469.18	469.20	469.31	469.15	469.09	469.13	469.26	469.48	469.77	470.11	470.50	470.90	471.32	471.35	471.38	471.42	471.46	471.53	471.63	471.75	471.91	472.10	472.32	472.18	472.08	472.01	471.98	471.98	472.01	472.06	472.14	472.22	472.32	472.04	471.79	471.57	471.41	471.32	471.31	471.40	471.60	471.91	472.32	472.45	472.69	473.03	473.46	473.99	474.58	475.23	475.92	476.62	477.32	477.63	477.92	478.20	478.47	478.74	479.02	479.31	479.62	479.96	480.32	480.34	480.39	480.48	480.61	480.80	481.03	481.31	481.62	481.96	482.32	482.33	482.34	482.39	482.47	482.61	482.80	483.06	483.40	483.82	484.32	484.53	484.83	485.22	485.70	486.28	486.95	487.70	488.53	489.41	490.33	490.90	491.48	492.08	492.68	493.29	493.91	494.53	495.14	495.74	496.33	496.53	496.71	496.88	497.04	497.21	497.40	497.60	497.82	498.07	498.33	498.25	498.21	498.21	498.27	498.41	498.62	498.92	499.31	499.79	500.33	500.58	500.89	501.27	501.71	502.22	502.77	503.38	504.01	504.67	505.34	505.63	505.91	506.19	506.47	506.75	507.05	507.35	507.67	508	508.34	508.32	508.30	508.31	508.34	508.42	508.53	508.68	508.87	509.09	509.34	509.24	509.16	509.12	509.12	509.17	509.28	509.45	509.68	509.98	510.34	510.39	510.52	510.72	511	511.37	511.83	512.37	512.98	513.64	514.34	514.69	515.04	515.39	515.74	516.07	516.39	516.68	516.94	517.16	517.35	517.12	516.88	516.63	516.41	516.22	516.08	516.02	516.04	516.15	516.35	516.25	516.25	516.35	516.55	516.84	517.22	517.67	518.19	518.76	519.35	519.58	519.82	520.07	520.34	520.63	520.94	521.26	521.61	521.97	522.35	522.36	522.38	522.42	522.49	522.58	522.70	522.85	523.01	523.18	523.35	523.14	522.93	522.74	522.56	522.41	522.30	522.24	522.22	522.26	522.35	522.11	521.94	521.84	521.83	521.90	522.05	522.29	522.59	522.95	523.35	523.40	523.47	523.56	523.67	523.79	523.92	524.04	524.16	524.27	524.35	524.03	523.69	523.34	523	522.66	522.35	522.06	521.79	521.56	521.35	520.79	520.27	519.80	519.38	519.04	518.76	518.56	518.42	518.35	518.35	518.02	517.75	517.56	517.45	517.41	517.46	517.59	517.78	518.04	518.35	518.31	518.32	518.36	518.44	518.56	518.70	518.85	519.02	519.19	519.35	519.11	518.86	518.62	518.38	518.15	517.95	517.76	517.60	517.47	517.35	516.87	516.41	515.99	515.61	515.28	515	514.76	514.58	514.44	514.34	513.91	513.53	513.21	512.97	512.82	512.76	512.78	512.89	513.09	513.34	513.28	513.26	513.31	513.39	513.52	513.67	513.84	514.02	514.19	514.34	514.09	513.83	513.56	513.30	513.06	512.84	512.66	512.52	512.41	512.34	511.93	511.56	511.23	510.97	510.75	510.59	510.47	510.40	510.36	510.34	509.97	509.64	509.35	509.12	508.96	508.88	508.88	508.96	509.11	509.34	509.25	509.22	509.25	509.34	509.47	509.64	509.82	510.01	510.19	510.34	510.07	509.77	509.45	509.11	508.76	508.43	508.11	507.82	507.56	507.34	506.79	506.30	505.88	505.55	505.31	505.16	505.10	505.12	505.20	505.34	505.14	504.98	504.86	504.79	504.77	504.79	504.86	504.98	505.14	505.34	505.19	505.09	505.05	505.07	505.15	505.30	505.50	505.75	506.04	506.34	506.27	506.19	506.12	506.04	505.95	505.86	505.75	505.63	505.49	505.34	504.80	504.26	503.76	503.30	502.91	502.60	502.38	502.27	502.25	502.34	502.14	502.05	502.06	502.17	502.37	502.66	503.02	503.43	503.88	504.34	504.42	504.50	504.58	504.66	504.75	504.84	504.94	505.06	505.19	505.34	505.13	504.94	504.80	504.71	504.68	504.71	504.80	504.94	505.12	505.34	505.20	505.09	505.01	504.96	504.94	504.95	505	505.08	505.19	505.34	505.14	504.98	504.89	504.86	504.92	505.05	505.27	505.56	505.92	506.34	506.43	506.55	506.72	506.92	507.14	507.38	507.63	507.88	508.12	508.34	508.16	507.97	507.78	507.61	507.45	507.34	507.26	507.24	507.26	507.34	507.09	506.90	506.76	506.70	506.69	506.74	506.85	506.99	507.16	507.34	507.15	506.97	506.80	506.65	506.52	506.42	506.35	506.31	506.31	506.34	506.02	505.74	505.51	505.33	505.20	505.14	505.13	505.16	505.24	505.34	505.08	504.85	504.65	504.49	504.36	504.27	504.23	504.23	504.27	504.34	504.05	503.79	503.56	503.39	503.26	503.18	503.15	503.17	503.23	503.34	503.08	502.87	502.70	502.60	502.56	502.59	502.68	502.85	503.07	503.34	503.24	503.17	503.12	503.11	503.11	503.14	503.18	503.23	503.29	503.34	502.98	502.62	502.27	501.96	501.69	501.48	501.33	501.26	501.26	501.34	501.06	500.84	500.69	500.61	500.59	500.64	500.74	500.90	501.10	501.34	501.18	501.06	500.98	500.94	500.98	501.09	501.28	501.55	501.91	502.34	502.42	502.55	502.75	503.01	503.31	503.67	504.06	504.47	504.90	505.34	505.35	505.36	505.38	505.43	505.53	505.69	505.94	506.29	506.75	507.34	507.64	508.08	508.68	509.44	510.37	511.47	512.73	514.14	515.69	517.35	518.68	520.10	521.57	523.12	524.71	526.36	528.06	529.79	531.56	533.36	534.77	536.19	537.66	539.16	540.72	542.34	544.01	545.75	547.54	549.37	550.83	552.33	553.85	555.41	557.01	558.64	560.30	561.98	563.68	565.38	566.68	567.99	569.31	570.64	572.01	573.41	574.85	576.33	577.84	579.39	580.57	581.78	583.02	584.30	585.61	586.95	588.31	589.68	591.05	592.40	593.33	594.24	595.11	595.95	596.76	597.54	598.30	599.03	599.73	600.40	600.66	600.91	601.14	601.39	601.65	601.94	602.26	602.61	602.99	603.40	603.46	603.55	603.68	603.84	604.04	604.28	604.54	604.83	605.12	605.40	605.31	605.19	605.05	604.90	604.72	604.53	604.30	604.04	603.75	603.40	602.65	601.87	601.06	600.24	599.41	598.59	597.78	596.97	596.18	595.40	594.26	593.14	592.05	591	589.98	589.01	588.07	587.16	586.27	585.39	584.16	582.95	581.77	580.62	579.50	578.42	577.37	576.35	575.36	574.38	573.05	571.75	570.48	569.25	568.06	566.89	565.75	564.63	563.51	562.38	560.86	559.34	557.83	556.32	554.82	553.32	551.83	550.34	548.85	547.37	545.51	543.68	541.90	540.18	538.53	536.95	535.44	534.01	532.65	531.36	529.74	528.21	526.77	525.40	524.11	522.89	521.72	520.58	519.46	518.35	516.84	515.33	513.82	512.32	510.82	509.32	507.82	506.32	504.83	503.34	501.48	499.67	497.92	496.26	494.69	493.22	491.86	490.59	489.42	488.33	486.92	485.60	484.37	483.22	482.13	481.10	480.12	479.17	478.24	477.32	476.03	474.77	473.57	472.43	471.36	470.37	469.48	468.67	467.95	467.31	466.37	465.52	464.76	464.10	463.52	463.01	462.55	462.12	461.72	461.31	460.51	459.71	458.93	458.17	457.43	456.72	456.05	455.43	454.84	454.30	453.43	452.63	451.91	451.29	450.75	450.31	449.95	449.67	449.46	449.30	448.81	448.38	448.01	447.71	447.48	447.32	447.22	447.19	447.22	447.30	447.05	446.85	446.71	446.64	446.63	446.68	446.78	446.93	447.10	447.30	447.14	447	446.89	446.82	446.79	446.80	446.86	446.97	447.12	447.30	447.15	447.04	446.99	446.99	447.06	447.19	447.39	447.64	447.95	448.30	448.32	448.39	448.52	448.71	448.96	449.29	449.70	450.17	450.71	451.30	451.58	451.91	452.30	452.74	453.24	453.78	454.37	454.99	455.64	456.31	456.61	456.92	457.24	457.59	457.96	458.35	458.79	459.26	459.76	460.31	460.53	460.79	461.11	461.49	461.95	462.47	463.08	463.76	464.51	465.31	465.81	466.35	466.95	467.59	468.29	469.03	469.81	470.63	471.47	472.32	472.81	473.30	473.78	474.27	474.77	475.27	475.77	476.29	476.80	477.32	477.48	477.65	477.83	478.05	478.30	478.60	478.96	479.36	479.82	480.32	480.51	480.74	481.01	481.34	481.71	482.14	482.62	483.15	483.72	484.32	484.61	484.92	485.28	485.69	486.15	486.67	487.26	487.90	488.59	489.33	489.74	490.18	490.64	491.14	491.65	492.18	492.72	493.26	493.80	494.33	494.49	494.63	494.76	494.90	495.06	495.24	495.46	495.71	496	496.33	496.34	496.38	496.47	496.60	496.78	497.02	497.29	497.61	497.96	498.33	498.37	498.43	498.51	498.63	498.79	499.01	499.27	499.58	499.94	500.33	500.41	500.51	500.65	500.82	501.02	501.26	501.51	501.78	502.06	502.34	502.25	502.15	502.06	501.99	501.94	501.93	501.96	502.04	502.16	502.34	502.19	502.09	502.05	502.07	502.15	502.30	502.49	502.74	503.02	503.34	503.30	503.29	503.30	503.35	503.43	503.54	503.69	503.88	504.10	504.34	504.23	504.15	504.09	504.06	504.06	504.08	504.13	504.19	504.26	504.34	504.04	503.74	503.45	503.17	502.93	502.72	502.55	502.43	502.36	502.34	502	501.72	501.51	501.39	501.35	501.40	501.54	501.74	502.01	502.34	502.32	502.34	502.40	502.48	502.59	502.71	502.86	503.02	503.18	503.34	503.12	502.91	502.71	502.54	502.40	502.31	502.25	502.24	502.27	502.34	502.06	501.81	501.60	501.43	501.30	501.22	501.19	501.19	501.25	501.34	501.09	500.90	500.78	500.73	500.78	500.91	501.15	501.47	501.87	502.34	502.48	502.66	502.88	503.12	503.36	503.61	503.84	504.05	504.22	504.34	504.04	503.71	503.38	503.05	502.75	502.51	502.33	502.24	502.24	502.34	502.15	502.06	502.08	502.20	502.42	502.71	503.07	503.47	503.90	504.34	504.39	504.44	504.49	504.54	504.60	504.69	504.80	504.94	505.12	505.34	505.22	505.15	505.13	505.18	505.28	505.43	505.62	505.85	506.09	506.34	506.20	506.06	505.92	505.78	505.65	505.54	505.45	505.38	505.35	505.34	504.99	504.67	504.41	504.21	504.08	504.01	504.01	504.06	504.18	504.34	504.17	504.04	503.97	503.97	504.03	504.16	504.36	504.63	504.96	505.34	505.39	505.48	505.62	505.79	506.01	506.25	506.52	506.79	507.07	507.34	507.22	507.08	506.93	506.79	506.66	506.55	506.46	506.40	506.36	506.34	505.97	505.62	505.31	505.04	504.81	504.64	504.50	504.41	504.36	504.34	503.97	503.64	503.36	503.14	502.99	502.91	502.91	502.98	503.13	503.34	503.23	503.17	503.18	503.24	503.35	503.50	503.69	503.90	504.12	504.34	504.17	504	503.84	503.68	503.55	503.44	503.36	503.32	503.31	503.34	503.02	502.73	502.50	502.32	502.19	502.13	502.11	502.15	502.22	502.34	502.10	501.90	501.74	501.63	501.59	501.61	501.69	501.84	502.06	502.34	502.29	502.30	502.38	502.52	502.72	502.97	503.28	503.61	503.97	504.34	504.32	504.30	504.27	504.25	504.23	504.22	504.22	504.24	504.28	504.34	504.04	503.78	503.57	503.43	503.36	503.39	503.50	503.70	503.98	504.34	504.38	504.49	504.67	504.91	505.22	505.58	505.98	506.42	506.87	507.34	507.42	507.50	507.58	507.66	507.75	507.85	507.97	508.08	508.21	508.34	508.09	507.85	507.64	507.45	507.31	507.21	507.16	507.17	507.23	507.34	507.12	506.96	506.86	506.84	506.90	507.04	507.26	507.56	507.92	508.34	508.42	508.53	508.69	508.87	509.09	509.33	509.58	509.84	510.10	510.34	510.19	510.02	509.85	509.69	509.55	509.43	509.35	509.30	509.30	509.34	509.05	508.80	508.62	508.51	508.47	508.51	508.62	508.80	509.05	509.34	509.30	509.31	509.36	509.47	509.64	509.87	510.16	510.51	510.90	511.34	511.44	511.59	511.78	512.02	512.32	512.66	513.04	513.46	513.90	514.34	514.42	514.49	514.56	514.64	514.73	514.83	514.94	515.06	515.20	515.34	515.13	514.93	514.77	514.67	514.62	514.63	514.72	514.87	515.08	515.34	515.28	515.25	515.27	515.34	515.45	515.59	515.76	515.95	516.15	516.35	516.16	515.97	515.78	515.61	515.47	515.36	515.29	515.27	515.28	515.34	515.07	514.86	514.70	514.61	514.59	514.64	514.75	514.92	515.12	515.34	515.21	515.07	514.95	514.84	514.74	514.65	514.56	514.48	514.41	514.34	513.91	513.49	513.11	512.78	512.51	512.32	512.21	512.18	512.22	512.34	512.15	512.04	511.99	512.02	512.13	512.29	512.51	512.77	513.05	513.34	513.26	513.16	513.06	512.96	512.86	512.76	512.66	512.55	512.45	512.34	511.86	511.38	510.94	510.53	510.18	509.89	509.66	509.49	509.39	509.34	508.97	508.65	508.40	508.21	508.09	508.03	508.04	508.09	508.20	508.34	508.14	507.97	507.85	507.77	507.75	507.79	507.87	507.99	508.16	508.34	508.16	508	507.85	507.73	507.62	507.53	507.46	507.41	507.37	507.34	506.95	506.59	506.29	506.04	505.88	505.80	505.80	505.90	506.09	506.34	506.27	506.27	506.31	506.41	506.53	506.69	506.86	507.03	507.19	507.34	507.09	506.83	506.59	506.37	506.20	506.08	506.03	506.06	506.16	506.34	506.20	506.14	506.15	506.22	506.35	506.52	506.72	506.93	507.14	507.34	507.14	506.92	506.71	506.50	506.33	506.20	506.12	506.12	506.19	506.34	506.19	506.12	506.15	506.28	506.49	506.77	507.12	507.51	507.92	508.34	508.36	508.37	508.37	508.35	508.33	508.31	508.30	508.30	508.31	508.34	508.02	507.72	507.48	507.29	507.17	507.10	507.09	507.14	507.22	507.34	507.10	506.87	506.68	506.52	506.39	506.30	506.25	506.24	506.27	506.34	506.06	505.83	505.66	505.55	505.52	505.55	505.66	505.83	506.06	506.34	506.27	506.24	506.24	506.30	506.39	506.52	506.69	506.89	507.11	507.34	507.18	507.01	506.86	506.72	506.59	506.49	506.41	506.36	506.34	506.34	505.96	505.62	505.33	505.10	504.94	504.86	504.86	504.95	505.11	505.34	505.22	505.15	505.13	505.17	505.26	505.40	505.58	505.80	506.06	506.34	506.23	506.14	506.09	506.08	506.13	506.24	506.42	506.67	506.98	507.34	507.33	507.34	507.39	507.46	507.57	507.69	507.84	508	508.17	508.34	508.09	507.86	507.64	507.48	507.38	507.36	507.44	507.63	507.93	508.34	508.44	508.63	508.93	509.32	509.82	510.40	511.05	511.78	512.54	513.34	513.75	514.16	514.60	515.08	515.60	516.19	516.85	517.59	518.42	519.35	519.95	520.65	521.46	522.38	523.43	524.59	525.88	527.27	528.77	530.35	531.60	532.92	534.31	535.79	537.34	538.98	540.71	542.52	544.41	546.37	547.97	549.63	551.34	553.11	554.92	556.77	558.65	560.55	562.47	564.38	565.87	567.35	568.82	570.29	571.76	573.25	574.75	576.28	577.82	579.39	580.57	581.78	583.01	584.27	585.57	586.89	588.25	589.62	591.01	592.40	593.38	594.36	595.34	596.32	597.31	598.30	599.31	600.33	601.37	602.40	603.06	603.72	604.39	605.08	605.78	606.50	607.24	607.97	608.70	609.41	609.71	609.99	610.25	610.48	610.70	610.89	611.07	611.21	611.33	611.41	611.08	610.72	610.33	609.93	609.52	609.11	608.69	608.27	607.84	607.41	606.60	605.79	605	604.24	603.51	602.82	602.17	601.55	600.96	600.40	599.50	598.62	597.77	596.95	596.16	595.40	594.65	593.91	593.16	592.40	591.24	590.07	588.89	587.69	586.49	585.29	584.08	582.86	581.63	580.39	578.77	577.15	575.55	573.98	572.45	570.95	569.50	568.09	566.72	565.38	563.70	562.08	560.52	559.03	557.61	556.26	554.97	553.73	552.53	551.37	549.85	548.36	546.91	545.49	544.10	542.73	541.38	540.04	538.70	537.36	535.63	533.91	532.22	530.56	528.94	527.36	525.81	524.30	522.82	521.35	519.51	517.69	515.92	514.17	512.46	510.79	509.14	507.51	505.91	504.34	502.40	500.53	498.73	497.03	495.45	493.98	492.64	491.42	490.32	489.33	488.05	486.89	485.83	484.88	484.01	483.22	482.47	481.75	481.04	480.32	479.20	478.08	476.97	475.88	474.83	473.82	472.86	471.95	471.10	470.31	469.20	468.18	467.26	466.44	465.72	465.10	464.56	464.09	463.68	463.31	462.58	461.90	461.26	460.67	460.14	459.67	459.25	458.89	458.57	458.31	457.70	457.16	456.69	456.29	455.97	455.73	455.55	455.43	455.35	455.30	454.90	454.54	454.21	453.94	453.71	453.54	453.41	453.34	453.30	453.30	452.96	452.65	452.41	452.22	452.09	452.03	452.02	452.07	452.16	452.30	452.10	451.95	451.86	451.84	451.89	452.03	452.24	452.53	452.89	453.30	453.39	453.54	453.74	453.99	454.30	454.65	455.03	455.44	455.87	456.31	456.37	456.44	456.53	456.64	456.80	456.99	457.24	457.54	457.90	458.31	458.40	458.55	458.77	459.06	459.43	459.87	460.39	460.97	461.62	462.31	462.68	463.09	463.55	464.06	464.63	465.26	465.95	466.70	467.49	468.31	468.81	469.32	469.87	470.44	471.05	471.67	472.32	472.98	473.65	474.32	474.62	474.91	475.22	475.54	475.89	476.29	476.72	477.21	477.74	478.32	478.58	478.89	479.25	479.66	480.14	480.67	481.26	481.91	482.60	483.32	483.72	484.15	484.61	485.12	485.69	486.31	486.98	487.72	488.50	489.33	489.83	490.35	490.91	491.49	492.10	492.74	493.38	494.04	494.69	495.33	495.60	495.84	496.08	496.33	496.59	496.87	497.18	497.53	497.91	498.33	498.43	498.55	498.72	498.94	499.21	499.54	499.92	500.35	500.83	501.34	501.51	501.73	501.98	502.28	502.64	503.06	503.54	504.09	504.69	505.34	505.66	506.01	506.38	506.79	507.21	507.65	508.09	508.52	508.95	509.34	509.34	509.31	509.26	509.20	509.15	509.12	509.11	509.14	509.22	509.34	509.14	509	508.92	508.91	508.98	509.13	509.34	509.62	509.96	510.34	510.39	510.46	510.57	510.72	510.90	511.12	511.38	511.68	512	512.34	512.34	512.34	512.38	512.43	512.52	512.64	512.78	512.95	513.14	513.34	513.19	513.04	512.92	512.84	512.79	512.80	512.86	512.97	513.13	513.34	513.22	513.15	513.12	513.15	513.24	513.37	513.56	513.79	514.05	514.34	514.28	514.24	514.23	514.26	514.33	514.44	514.60	514.81	515.06	515.34	515.29	515.26	515.28	515.33	515.43	515.57	515.73	515.93	516.13	516.35	516.18	516.01	515.85	515.71	515.58	515.48	515.40	515.36	515.34	515.34	515	514.70	514.44	514.24	514.10	514.02	514.02	514.07	514.19	514.34	514.16	514.02	513.93	513.88	513.88	513.92	513.99	514.09	514.21	514.34	514.10	513.85	513.61	513.39	513.18	512.98	512.80	512.64	512.48	512.34	511.83	511.34	510.88	510.47	510.12	509.82	509.60	509.45	509.36	509.34	509	508.74	508.55	508.44	508.41	508.47	508.59	508.79	509.04	509.34	509.29	509.28	509.30	509.36	509.46	509.59	509.75	509.94	510.14	510.34	510.17	510	509.84	509.70	509.58	509.48	509.41	509.36	509.34	509.34	508.98	508.66	508.39	508.17	508.02	507.94	507.94	508.01	508.15	508.34	508.21	508.13	508.10	508.14	508.23	508.37	508.56	508.79	509.05	509.34	509.27	509.22	509.21	509.24	509.32	509.45	509.62	509.83	510.08	510.34	510.23	510.13	510.04	509.95	509.86	509.77	509.67	509.57	509.46	509.34	508.84	508.36	507.92	507.53	507.23	507.03	506.93	506.95	507.09	507.34	507.31	507.39	507.56	507.83	508.16	508.56	509	509.45	509.91	510.34	510.37	510.36	510.33	510.29	510.24	510.21	510.19	510.21	510.26	510.34	510.09	509.90	509.76	509.69	509.68	509.73	509.84	509.98	510.16	510.34	510.15	509.96	509.79	509.63	509.49	509.38	509.31	509.28	509.29	509.34	509.06	508.83	508.67	508.57	508.55	508.60	508.71	508.88	509.10	509.34	509.23	509.14	509.07	509.03	509.01	509.02	509.07	509.14	509.23	509.34	509.09	508.86	508.67	508.51	508.39	508.32	508.28	508.28	508.30	508.34	508.01	507.70	507.41	507.15	506.92	506.73	506.57	506.46	506.38	506.34	505.95	505.61	505.33	505.11	504.96	504.89	504.90	504.98	505.13	505.34	505.22	505.16	505.15	505.19	505.29	505.44	505.63	505.85	506.09	506.34	506.20	506.06	505.93	505.80	505.68	505.58	505.49	505.42	505.37	505.34	504.95	504.60	504.30	504.06	503.90	503.82	503.83	503.92	504.09	504.34	504.27	504.26	504.33	504.46	504.66	504.92	505.22	505.57	505.95	506.34	506.36	506.38	506.42	506.48	506.56	506.66	506.79	506.95	507.14	507.34	507.18	507.04	506.93	506.86	506.83	506.85	506.92	507.02	507.17	507.34	507.15	506.99	506.87	506.78	506.75	506.77	506.84	506.96	507.13	507.34	507.21	507.11	507.07	507.09	507.17	507.30	507.49	507.73	508.02	508.34	508.30	508.29	508.30	508.36	508.44	508.56	508.72	508.91	509.12	509.34	509.20	509.07	508.96	508.89	508.86	508.87	508.92	509.02	509.16	509.34	509.17	509.05	508.97	508.96	509.02	509.15	509.35	509.62	509.95	510.34	510.40	510.51	510.67	510.90	511.18	511.52	511.91	512.35	512.83	513.34	513.49	513.67	513.88	514.12	514.40	514.72	515.08	515.48	515.90	516.35	516.42	516.52	516.64	516.78	516.96	517.18	517.43	517.70	518.01	518.35	518.32	518.33	518.37	518.47	518.63	518.85	519.13	519.48	519.89	520.35	520.47	520.63	520.84	521.10	521.40	521.74	522.12	522.52	522.93	523.35	523.39	523.42	523.46	523.52	523.60	523.70	523.82	523.98	524.15	524.35	524.19	524.05	523.94	523.87	523.85	523.87	523.94	524.05	524.19	524.35	524.16	523.99	523.87	523.78	523.75	523.76	523.83	523.96	524.13	524.35	524.23	524.16	524.14	524.17	524.26	524.41	524.60	524.83	525.08	525.35	525.24	525.13	525.02	524.92	524.82	524.72	524.63	524.54	524.45	524.35	523.87	523.41	522.96	522.56	522.21	521.91	521.67	521.51	521.40	521.35	