1.458455523
1.450635386
1.446725318
1.449657869
1.460410557
1.478005865
1.507331378
1.556207234
1.626588465
1.717497556
1.827956989
1.952101662
2.083088954
2.213098729
2.335288368
2.441837732
2.527859238
2.585532747
2.619745846
2.640273705
2.643206256
2.626588465
2.595307918
2.552297165
2.497556207
2.432062561
2.357771261
2.277614858
2.193548387
2.106549365
2.028347996
1.95601173
1.877810362
1.799608993
1.72629521
1.659824047
1.601173021
1.553274682
1.514173998
1.485826002
1.467253177
1.455522972
1.450635386
1.449657869
1.451612903
1.454545455
1.457478006
1.460410557
1.460410557
1.460410557
1.45943304
1.456500489
1.45259042
1.446725318
1.440860215
1.436950147
1.434017595
1.427174976
1.416422287
1.400782014
1.383186706
1.361681329
1.337243402
1.309872923
1.281524927
1.253176931
1.225806452
1.203323558
1.186705767
1.167155425
1.145650049
1.12512219
1.10459433
1.086021505
1.070381232
1.057673509
1.05083089
1.052785924
1.066471163
1.096774194
1.138807429
1.197458456
1.284457478
1.396871945
1.528836755
1.673509286
1.82111437
1.963831867
2.093841642
2.207233627
2.298142717
2.393939394
2.478983382
2.521016618
2.539589443
2.536656891
2.515151515
2.477028348
2.424242424
2.359726295
2.285434995
2.203323558
2.114369501
2.020527859
1.937438905
1.860215054
1.776148583
1.693059629
1.615835777
1.546432063
1.485826002
1.434995112
1.395894428
1.367546432
1.348973607
1.339198436
1.338220919
1.344086022
1.353861193
1.366568915
1.380254154
1.392961877
1.403714565
1.411534702
1.419354839
1.426197458
1.431085044
1.434017595
1.434017595
1.434017595
1.433040078
1.426197458
1.416422287
1.404692082
1.390029326
1.372434018
1.351906158
1.331378299
1.31085044
1.288367546
1.263929619
1.238514174
1.218963832
1.202346041
1.182795699
1.16226784
1.140762463
1.122189638
1.108504399
1.100684262
1.099706745
1.108504399
1.131964809
1.175953079
1.231671554
1.305962854
1.413489736
1.549364614
1.707722385
1.878787879
2.054740958
2.225806452
2.383186706
2.518084066
2.626588465
2.707722385
2.760508309
2.785923754
2.789833822
2.781036168
2.757575758
2.720430108
2.672531769
2.612903226
2.541544477
2.461388074
2.374389052
2.283479961
2.191593353
2.11143695
2.038123167
1.961876833
1.890518084
1.826001955
1.771260997
1.727272727
1.692082111
1.66568915
1.648093842
1.637341153
1.633431085
1.635386119
1.639296188
1.644183773
1.651026393
1.657869013
1.664711632
1.672531769
1.681329423
1.68914956
1.69599218
1.698924731
1.699902248
1.698924731
1.696969697
1.692082111
1.683284457
1.672531769
1.660801564
1.648093842
1.633431085
1.617790811
1.602150538
1.586510264
1.569892473
1.550342131
1.530791789
1.516129032
1.505376344
1.493646139
1.481915934
1.47311828
1.468230694
1.467253177
1.470185728
1.478005865
1.493646139
1.521016618
1.566959922
1.620723363
1.690127077
1.790811339
1.919843597
2.071358749
2.237536657
2.408602151
2.574780059
2.727272727
2.859237537
2.964809384
3.042033236
3.091886608
3.113391984
3.113391984
3.097751711
3.066471163
3.021505376
2.965786901
2.901270772
2.826979472
2.742913001
2.65200391
2.557184751
2.462365591
2.37829912
2.303030303
2.225806452
2.151515152
2.084066471
2.026392962
1.977517107
1.939393939
1.913000978
1.896383187
1.88856305
1.88856305
1.893450635
1.900293255
1.909090909
1.921798631
1.936461388
1.951124145
1.963831867
1.974584555
1.983382209
1.989247312
1.992179863
1.991202346
1.987292278
1.981427175
1.972629521
1.959921799
1.944281525
1.924731183
1.903225806
1.878787879
1.853372434
1.826001955
1.798631476
1.77028348
1.741935484
1.715542522
1.694037146
1.676441838
1.657869013
1.639296188
1.62170088
1.607038123
1.595307918
1.586510264
1.582600196
1.587487781
1.604105572
1.637341153
1.680351906
1.739002933
1.826979472
1.942326491
2.078201369
2.226783969
2.379276637
2.52688172
2.660801564
2.774193548
2.861192571
2.922776149
2.955034213
2.96285435
2.953079179
2.924731183
2.879765396
2.82111437
2.750733138
2.669599218
2.579667644
2.483870968
2.383186706
2.279569892
2.173998045
2.08113392
1.997067449
1.910068426
1.826979472
1.749755621
1.681329423
1.624633431
1.578690127
1.543499511
1.517106549
1.499511241
1.487781036
1.482893451
1.483870968
1.487781036
1.492668622
1.498533724
1.50342131
1.481915934
1.445747801
1.426197458
1.412512219
1.401759531
1.391006843
1.379276637
1.368523949
1.356793744
1.339198436
1.31769306
1.293255132
1.26686217
1.240469208
1.215053763
1.187683284
1.158357771
1.129032258
1.099706745
1.077223851
1.058651026
1.036168133
1.014662757
0.995112414
0.976539589
0.959921799
0.948191593
0.943304008
0.951124145
0.976539589
1.023460411
1.094819159
1.17888563
1.278592375
1.409579668
1.561094819
1.724340176
1.889540567
2.045943304
2.186705767
2.304985337
2.396871945
2.462365591
2.501466276
2.517106549
2.513196481
2.493646139
2.458455523
2.410557185
2.353861193
2.288367546
2.212121212
2.127077224
2.03714565
1.943304008
1.848484848
1.754643206
1.675464321
1.606060606
1.53372434
1.465298143
1.404692082
1.35483871
1.315738025
1.286412512
1.267839687
1.257086999
1.255131965
1.259042033
1.26686217
1.277614858
1.288367546
1.299120235
1.308895406
1.316715543
1.323558162
1.329423265
1.333333333
1.333333333
1.329423265
1.321603128
1.31085044
1.302052786
1.293255132
1.281524927
1.267839687
1.251221896
1.232649071
1.214076246
1.193548387
1.171065494
1.146627566
1.121212121
1.095796676
1.078201369
1.063538612
1.046920821
1.031280547
1.018572825
1.008797654
1.002932551
1.002932551
1.012707722
1.03714565
1.082111437
1.152492669
1.249266862
1.353861193
1.470185728
1.617790811
1.783968719
1.95601173
2.123167155
2.276637341
2.407624633
2.512218964
2.590420332
2.642228739
2.668621701
2.673509286
2.661779081
2.636363636
2.601173021
2.557184751
2.502443793
2.438905181
2.365591398
2.286412512
2.201368524
2.114369501
2.026392962
1.939393939
1.865102639
1.802541544
1.740957967
1.684261975
1.635386119
1.597262952
1.568914956
1.551319648
1.542521994
1.541544477
1.54740958
1.558162268
1.571847507
1.585532747
1.600195503
1.613880743
1.625610948
1.636363636
1.646138807
1.653958944
1.659824047
1.663734115
1.666666667
1.667644184
1.666666667
1.66568915
1.663734115
1.660801564
1.654936461
1.647116325
1.638318671
1.626588465
1.613880743
1.601173021
1.586510264
1.571847507
1.558162268
1.54740958
1.538611926
1.530791789
1.524926686
1.522971652
1.523949169
1.528836755
1.538611926
1.558162268
1.589442815
1.638318671
1.708699902
1.804496579
1.904203324
2.012707722
2.151515152
2.307917889
2.470185728
2.627565982
2.772238514
2.896383187
2.997067449
3.073313783
3.124144673
3.151515152
3.15542522
3.140762463
3.112414467
3.072336266
3.021505376
2.959921799
2.887585533
2.806451613
2.71945259
2.627565982
2.532746823
2.437927664
2.35483871
2.281524927
2.207233627
2.136852395
2.0742913
2.021505376
1.980449658
1.950146628
1.928641251
1.914956012
1.910068426
1.910068426
1.914956012
1.921798631
1.928641251
1.938416422
1.950146628
1.961876833
1.973607038
1.982404692
1.987292278
1.989247312
1.987292278
1.983382209
1.976539589
1.967741935
1.956989247
1.941348974
1.922776149
1.901270772
1.876832845
1.850439883
1.823069404
1.794721408
1.764418377
1.735092864
1.706744868
1.678396872
1.653958944
1.632453568
1.609970674
1.589442815
1.57086999
1.554252199
1.541544477
1.53372434
1.532746823
1.542521994
1.565982405
1.608993157
1.656891496
1.713587488
1.798631476
1.908113392
2.034213099
2.168132942
2.300097752
2.424242424
2.53372434
2.623655914
2.691104594
2.736070381
2.761485826
2.765395894
2.750733138
2.723362659
2.684261975
2.634408602
2.573802542
2.504398827
2.427174976
2.343108504
2.255131965
2.165200391
2.075268817
1.997067449
1.927663734
1.855327468
1.787878788
1.728250244
1.677419355
1.636363636
1.604105572
1.579667644
1.563049853
1.552297165
1.546432063
1.543499511
1.543499511
1.546432063
1.550342131
1.554252199
1.557184751
1.558162268
1.559139785
1.558162268
1.556207234
1.551319648
1.542521994
1.529814272
1.518084066
1.506353861
1.48973607
1.469208211
1.447702835
1.425219941
1.401759531
1.376344086
1.350928641
1.326490714
1.303030303
1.281524927
1.260997067
1.247311828
1.235581623
1.2228739
1.211143695
1.200391007
1.191593353
1.187683284
1.191593353
1.206256109
1.23655914
1.286412512
1.356793744
1.434995112
1.523949169
1.637341153
1.768328446
1.906158358
2.042033236
2.169110459
2.28054741
2.3714565
2.440860215
2.486803519
2.512218964
2.518084066
2.507331378
2.483870968
2.448680352
2.401759531
2.346041056
2.282502444
2.212121212
2.135874878
2.055718475
1.973607038
1.891495601
1.811339198
1.745845552
1.692082111
1.639296188
1.591397849
1.551319648
1.520039101
1.49657869
1.480938416
1.470185728
1.465298143
1.465298143
1.470185728
1.478983382
1.488758553
1.497556207
1.504398827
1.511241447
1.517106549
1.521994135
1.522971652
1.521994135
1.518084066
1.513196481
1.506353861
1.498533724
1.491691105
1.484848485
1.474095797
1.460410557
1.442815249
1.423264907
1.401759531
1.380254154
1.358748778
1.337243402
1.316715543
1.296187683
1.277614858
1.264907136
1.256109482
1.247311828
1.240469208
1.237536657
1.237536657
1.244379277
1.260997067
1.294232649
1.347018573
1.42228739
1.521994135
1.622678397
1.731182796
1.866080156
2.011730205
2.157380254
2.293255132
2.412512219
2.51026393
2.58455523
2.635386119
2.664711632
2.674486804
2.66568915
2.64516129
2.613880743
2.57086999
2.520039101
2.460410557
2.393939394
2.319648094
2.238514174
2.154447703
2.068426197
1.983382209
1.902248289
1.835777126
1.779081134
1.725317693
1.677419355
1.637341153
1.60801564
1.588465298
1.57771261
1.574780059
1.576735093
1.582600196
1.590420332
1.598240469
1.606060606
1.613880743
1.622678397
1.630498534
1.637341153
1.642228739
1.646138807
1.647116325
1.646138807
1.642228739
1.636363636
1.6285435
1.619745846
1.609970674
1.597262952
1.582600196
1.565004888
1.545454545
1.524926686
1.505376344
1.485826002
1.46627566
1.446725318
1.427174976
1.412512219
1.401759531
1.391006843
1.382209189
1.377321603
1.376344086
1.380254154
1.39198436
1.411534702
1.442815249
1.491691105
1.561094819
1.652981427
1.747800587
1.850439883
1.979472141
2.122189638
2.26686217
2.403714565
2.52688172
2.631476051
2.712609971
2.768328446
2.802541544
2.816226784
2.811339198
2.792766373
2.762463343
2.720430108
2.668621701
2.608993157
2.54056696
2.465298143
2.384164223
2.300097752
2.216031281
2.133919844
2.055718475
1.990224829
1.934506354
1.880742913
1.832844575
1.792766373
1.762463343
1.723362659
1.68230694
1.661779081
1.653958944
1.655913978
1.663734115
1.672531769
1.68230694
1.693059629
1.7028348
1.712609971
1.721407625
1.72629521
1.728250244
1.72629521
1.721407625
1.712609971
1.701857283
1.68914956
1.675464321
1.660801564
1.643206256
1.622678397
1.601173021
1.578690127
1.555229717
1.531769306
1.508308895
1.483870968
1.458455523
1.434017595
1.414467253
1.398826979
1.383186706
1.369501466
1.359726295
1.353861193
1.351906158
1.356793744
1.368523949
1.390029326
1.427174976
1.484848485
1.566959922
1.653958944
1.753665689
1.885630499
2.038123167
2.19941349
2.358748778
2.507331378
2.638318671
2.744868035
2.824046921
2.875855327
2.901270772
2.901270772
2.88172043
2.846529814
2.796676442
2.734115347
2.661779081
2.578690127
2.486803519
2.388074291
2.284457478
2.17888563
2.0742913
1.974584555
1.890518084
1.819159335
1.748778104
1.685239492
1.632453568
1.592375367
1.562072336
1.54056696
1.52688172
1.521016618
1.520039101
1.523949169
1.529814272
1.537634409
1.545454545
1.552297165
1.557184751
1.561094819
1.563049853
1.562072336
1.557184751
1.54740958
1.534701857
1.518084066
1.498533724
1.480938416
1.463343109
1.440860215
1.416422287
1.389051808
1.360703812
1.331378299
1.302052786
1.27370479
1.245356794
1.217008798
1.190615836
1.171065494
1.157380254
1.14173998
1.127077224
1.115347019
1.105571848
1.101661779
1.107526882
1.127077224
1.165200391
1.227761486
1.316715543
1.432062561
1.548387097
1.671554252
1.82111437
1.981427175
2.139784946
2.286412512
2.413489736
2.515151515
2.587487781
2.631476051
2.649071359
2.642228739
2.618768328
2.581622678
2.529814272
2.464320626
2.389051808
2.304985337
2.215053763
2.119257087
2.019550342
1.919843597
1.820136852
1.725317693
1.646138807
1.578690127
1.511241447
1.449657869
1.397849462
1.355816227
1.323558162
1.302052786
1.289345064
1.283479961
1.283479961
1.287390029
1.295210166
1.30400782
1.312805474
1.321603128
1.328445748
1.333333333
1.337243402
1.338220919
1.335288368
1.328445748
1.316715543
1.303030303
1.286412512
1.272727273
1.259042033
1.240469208
1.217986315
1.194525904
1.170087977
1.142717498
1.114369501
1.086021505
1.058651026
1.031280547
1.004887586
0.981427175
0.965786901
0.955034213
0.943304008
0.933528837
0.928641251
0.930596285
0.942326491
0.968719453
1.013685239
1.083088954
1.179863148
1.304985337
1.432062561
1.566959922
1.731182796
1.907135875
2.08113392
2.242424242
2.383186706
2.497556207
2.582600196
2.640273705
2.671554252
2.679374389
2.666666667
2.639296188
2.601173021
2.548387097
2.482893451
2.406647116
2.322580645
2.232649071
2.136852395
2.03714565
1.937438905
1.840664712
1.747800587
1.672531769
1.609970674
1.549364614
1.49657869
1.453567937
1.421309873
1.399804497
1.387096774
1.382209189
1.383186706
1.387096774
1.392961877
1.398826979
1.405669599
1.411534702
1.418377322
1.424242424
1.428152493
1.430107527
1.430107527
1.427174976
1.421309873
1.411534702
1.398826979
1.384164223
1.3714565
1.360703812
1.346041056
1.329423265
1.31085044
1.290322581
1.268817204
1.244379277
1.217986315
1.193548387
1.172043011
1.152492669
1.134897361
1.143695015
1.165200391
1.172043011
1.175953079
1.179863148
1.187683284
1.204301075
1.233626588
1.277614858
1.342130987
1.432062561
1.550342131
1.670576735
1.796676442
1.951124145
2.120234604
2.290322581
2.449657869
2.592375367
2.713587488
2.806451613
2.871945259
2.911045943
2.924731183
2.916911046
2.892473118
2.855327468
2.804496579
2.741935484
2.670576735
2.590420332
2.502443793
2.408602151
2.311827957
2.215053763
2.120234604
2.029325513
1.953079179
1.889540567
1.827956989
1.774193548
1.730205279
1.696969697
1.674486804
1.661779081
1.655913978
1.655913978
1.660801564
1.669599218
1.680351906
1.691104594
1.7028348
1.715542522
1.72629521
1.735092864
1.741935484
1.746823069
1.748778104
1.748778104
1.744868035
1.739002933
1.730205279
1.71945259
1.706744868
1.690127077
1.670576735
1.647116325
1.620723363
1.594330401
1.567937439
1.542521994
1.520039101
1.498533724
1.478005865
1.45943304
1.445747801
1.434017595
1.421309873
1.410557185
1.403714565
1.401759531
1.405669599
1.417399804
1.440860215
1.480938416
1.541544477
1.626588465
1.716520039
1.819159335
1.952101662
2.106549365
2.270772239
2.434017595
2.588465298
2.725317693
2.835777126
2.917888563
2.971652004
2.999022483
3.001955034
2.985337243
2.953079179
2.906158358
2.845552297
2.773216031
2.690127077
2.598240469
2.498533724
2.392961877
2.285434995
2.180840665
2.08113392
1.998044966
1.926686217
1.85826002
1.797653959
1.744868035
1.704789834
1.676441838
1.657869013
1.648093842
1.646138807
1.650048876
1.656891496
1.66568915
1.675464321
1.686217009
1.696969697
1.705767351
1.712609971
1.716520039
1.717497556
1.714565005
1.707722385
1.696969697
1.683284457
1.668621701
1.653958944
1.638318671
1.616813294
1.592375367
1.565982405
1.536656891
1.505376344
1.475073314
1.444770283
1.414467253
1.38514174
1.356793744
1.33431085
1.314760508
1.292277615
1.270772239
1.252199413
1.23655914
1.225806452
1.2228739
1.230694037
1.253176931
1.294232649
1.357771261
1.449657869
1.548387097
1.657869013
1.80058651
1.961876833
2.129032258
2.290322581
2.436950147
2.561094819
2.659824047
2.731182796
2.774193548
2.791788856
2.786901271
2.76344086
2.724340176
2.672531769
2.60801564
2.530791789
2.443792766
2.349951124
2.247311828
2.140762463
2.034213099
1.928641251
1.826979472
1.742913001
1.672531769
1.602150538
1.539589443
1.487781036
1.447702835
1.417399804
1.395894428
1.382209189
1.374389052
1.3714565
1.3714565
1.373411535
1.379276637
1.387096774
1.394916911
1.401759531
1.406647116
1.410557185
1.412512219
1.410557185
1.405669599
1.396871945
1.383186706
1.366568915
1.351906158
1.337243402
1.316715543
1.292277615
1.265884653
1.237536657
1.208211144
1.179863148
1.152492669
1.12512219
1.098729228
1.075268817
1.059628543
1.046920821
1.032258065
1.017595308
1.004887586
0.997067449
0.997067449
1.00684262
1.032258065
1.078201369
1.1485826
1.248289345
1.376344086
1.506353861
1.641251222
1.804496579
1.978494624
2.1485826
2.30400782
2.437927664
2.54740958
2.629521017
2.684261975
2.712609971
2.717497556
2.703812317
2.674486804
2.630498534
2.574780059
2.509286413
2.433040078
2.347018573
2.250244379
2.146627566
2.042033236
1.939393939
1.841642229
1.749755621
1.675464321
1.613880743
1.555229717
1.504398827
1.463343109
1.433040078
1.412512219
1.400782014
1.395894428
1.396871945
1.401759531
1.409579668
1.418377322
1.427174976
1.434995112
1.442815249
1.449657869
1.454545455
1.458455523
1.45943304
1.457478006
1.453567937
1.445747801
1.434995112
1.421309873
1.409579668
1.396871945
1.380254154
1.360703812
1.338220919
1.313782991
1.289345064
1.265884653
1.242424242
1.217986315
1.193548387
1.171065494
1.15542522
1.142717498
1.130009775
1.119257087
1.112414467
1.109481916
1.113391984
1.127077224
1.153470186
1.197458456
1.261974585
1.352883675
1.471163245
1.591397849
1.721407625
1.880742913
2.053763441
2.227761486
2.391006843
2.534701857
2.65200391
2.741935484
2.804496579
2.840664712
2.852394917
2.843597263
2.819159335
2.782991202
2.734115347
2.674486804
2.603128055
2.521016618
2.42913001
2.332355816
2.232649071
2.131964809
2.035190616
1.943304008
1.868035191
1.805474096
1.746823069
1.696969697
1.656891496
1.626588465
1.606060606
1.593352884
1.587487781
1.586510264
1.589442815
1.595307918
1.602150538
1.609970674
1.618768328
1.627565982
1.635386119
1.642228739
1.649071359
1.655913978
1.660801564
1.662756598
1.663734115
1.663734115
1.661779081
1.657869013
1.650048876
1.638318671
1.623655914
1.606060606
1.586510264
1.566959922
1.54740958
1.527859238
1.51026393
1.492668622
1.478005865
1.468230694
1.460410557
1.451612903
1.442815249
1.43597263
1.432062561
1.431085044
1.434017595
1.442815249
1.461388074
1.494623656
1.54740958
1.609970674
1.68914956
1.801564027
1.939393939
2.097751711
2.265884653
2.433040078
2.589442815
2.728250244
2.842619746
2.929618768
2.987292278
3.019550342
3.027370479
3.013685239
2.983382209
2.938416422
2.878787879
2.80742913
2.724340176
2.632453568
2.532746823
2.430107527
2.327468231
2.224828935
2.135874878
2.057673509
1.979472141
1.907135875
1.84457478
1.791788856
1.749755621
1.717497556
1.695014663
1.680351906
1.673509286
1.673509286
1.678396872
1.686217009
1.695014663
1.705767351
1.717497556
1.727272727
1.734115347
1.739002933
1.73998045
1.737047898
1.730205279
1.720430108
1.708699902
1.696969697
1.685239492
1.671554252
1.654936461
1.634408602
1.610948192
1.585532747
1.559139785
1.529814272
1.497556207
1.463343109
1.428152493
1.392961877
1.363636364
1.337243402
1.306940371
1.276637341
1.249266862
1.224828935
1.202346041
1.18572825
1.176930596
1.180840665
1.201368524
1.244379277
1.299120235
1.3714565
1.475073314
1.604105572
1.753665689
1.914956012
2.078201369
2.235581623
2.376344086
2.495601173
2.587487781
2.650048876
2.684261975
2.693059629
2.68230694
2.655913978
2.613880743
2.559139785
2.491691105
2.413489736
2.325513196
2.231671554
2.132942326
2.03030303
1.927663734
1.83773216
1.759530792
1.680351906
1.604105572
1.535679374
1.478983382
1.432062561
1.396871945
1.372434018
1.357771261
1.351906158
1.351906158
1.356793744
1.362658847
1.369501466
1.376344086
1.383186706
1.388074291
1.392961877
1.394916911
1.393939394
1.391006843
1.384164223
1.375366569
1.363636364
1.35483871
1.320625611
1.268817204
1.232649071
1.203323558
1.175953079
1.150537634
1.12512219
1.099706745
1.0742913
1.048875855
1.023460411
0.998044966
0.979472141
0.965786901
0.950146628
0.934506354
0.920821114
0.911045943
0.907135875
0.91202346
0.927663734
0.960899316
1.018572825
1.10459433
1.202346041
1.315738025
1.462365591
1.631476051
1.812316716
1.99315738
2.163245357
2.312805474
2.436950147
2.531769306
2.596285435
2.632453568
2.643206256
2.633431085
2.60801564
2.567937439
2.514173998
2.448680352
2.372434018
2.286412512
2.191593353
2.090909091
1.986314761
1.880742913
1.7771261
1.688172043
1.610948192
1.534701857
1.464320626
1.403714565
1.352883675
1.313782991
1.286412512
1.269794721
1.26001955
1.257086999
1.26001955
1.26686217
1.27370479
1.279569892
1.284457478
1.288367546
1.292277615
1.294232649
1.293255132
1.291300098
1.288367546
1.282502444
1.27370479
1.261974585
1.252199413
1.241446725
1.225806452
1.206256109
1.183773216
1.160312805
1.136852395
1.112414467
1.086999022
1.062561095
1.040078201
1.018572825
1.002932551
0.990224829
0.975562072
0.96285435
0.954056696
0.94916911
0.94916911
0.955034213
0.968719453
0.991202346
1.027370479
1.080156403
1.154447703
1.238514174
1.338220919
1.47311828
1.633431085
1.812316716
1.997067449
2.176930596
2.343108504
2.487781036
2.607038123
2.696969697
2.757575758
2.788856305
2.796676442
2.786901271
2.759530792
2.717497556
2.661779081
2.595307918
2.519061584
2.434995112
2.343108504
2.246334311
2.146627566
2.045943304
1.957966764
1.880742913
1.802541544
1.728250244
1.663734115
1.609970674
1.566959922
1.53372434
1.509286413
1.492668622
1.483870968
1.482893451
1.486803519
1.493646139
1.505376344
1.518084066
1.530791789
1.543499511
1.556207234
1.566959922
1.574780059
1.579667644
1.581622678
1.579667644
1.574780059
1.568914956
1.561094819
1.548387097
1.532746823
1.514173998
1.493646139
1.474095797
1.45259042
1.42913001
1.404692082
1.380254154
1.356793744
1.337243402
1.321603128
1.305962854
1.289345064
1.274682307
1.265884653
1.262952102
1.262952102
1.265884653
1.275659824
1.293255132
1.323558162
1.3714565
1.42913001
1.500488759
1.604105572
1.737047898
1.892473118
2.062561095
2.238514174
2.410557185
2.567937439
2.704789834
2.813294233
2.893450635
2.939393939
2.958944282
2.96285435
2.948191593
2.916911046
2.869012708
2.806451613
2.732160313
2.648093842
2.554252199
2.453567937
2.348973607
2.24340176
2.149560117
2.064516129
1.977517107
1.896383187
1.823069404
1.760508309
1.709677419
1.669599218
1.641251222
1.622678397
1.612903226
1.610948192
1.612903226
1.618768328
1.6285435
1.640273705
1.652981427
1.66568915
1.676441838
1.687194526
1.69599218
1.701857283
1.704789834
1.703812317
1.698924731
1.692082111
1.684261975
1.672531769
1.656891496
1.637341153
1.61485826
1.590420332
1.565982405
1.539589443
1.512218964
1.484848485
1.455522972
1.42913001
1.404692082
1.377321603
1.348973607
1.319648094
1.292277615
1.267839687
1.246334311
1.228739003
1.217008798
1.213098729
1.220918866
1.246334311
1.283479961
1.337243402
1.42228739
1.538611926
1.679374389
1.838709677
2.00684262
2.180840665
2.346041056
2.483870968
2.595307918
2.677419355
2.725317693
2.747800587
2.753665689
2.741935484
2.714565005
2.671554252
2.615835777
2.548387097
2.470185728
2.381231672
2.283479961
2.17888563
2.070381232
1.974584555
1.886608016
1.792766373
1.7028348
1.620723363
1.549364614
1.48973607
1.441837732
1.405669599
1.379276637
1.360703812
1.349951124
1.346041056
1.347018573
1.349951124
1.355816227
1.362658847
1.368523949
1.374389052
1.379276637
1.383186706
1.38514174
1.383186706
1.37829912
1.372434018
1.364613881
1.353861193
1.340175953
1.322580645
1.302052786
1.279569892
1.256109482
1.230694037
1.203323558
1.173998045
1.143695015
1.112414467
1.086999022
1.066471163
1.044965787
1.023460411
1.002932551
0.984359726
0.968719453
0.957966764
0.952101662
0.952101662
0.963831867
0.99315738
1.034213099
1.092864125
1.181818182
1.301075269
1.446725318
1.611925709
1.787878788
1.965786901
2.134897361
2.284457478
2.408602151
2.504398827
2.57086999
2.607038123
2.620723363
2.617790811
2.597262952
2.561094819
2.512218964
2.449657869
2.376344086
2.294232649
2.203323558
2.10459433
2.001955034
1.910068426
1.826001955
1.738025415
1.65200391
1.572825024
1.501466276
1.440860215
1.392961877
1.357771261
1.33431085
1.321603128
1.318670577
1.322580645
1.331378299
1.34115347
1.350928641
1.360703812
1.370478983
1.380254154
1.390029326
1.399804497
1.407624633
1.413489736
1.416422287
1.416422287
1.41544477
1.412512219
1.404692082
1.39198436
1.374389052
1.353861193
1.330400782
1.304985337
1.277614858
1.249266862
1.220918866
1.19257087
1.164222874
1.142717498
1.12512219
1.102639296
1.079178886
1.058651026
1.040078201
1.023460411
1.009775171
1.002932551
1.003910068
1.016617791
1.046920821
1.090909091
1.152492669
1.246334311
1.3714565
1.522971652
1.695014663
1.877810362
2.061583578
2.23655914
2.394916911
2.527859238
2.631476051
2.705767351
2.748778104
2.767350929
2.769305963
2.753665689
2.721407625
2.675464321
2.617790811
2.549364614
2.47311828
2.387096774
2.294232649
2.196480938
2.107526882
2.025415445
1.937438905
1.850439883
1.77028348
1.698924731
1.637341153
1.588465298
1.551319648
1.524926686
1.507331378
1.498533724
1.497556207
1.502443793
1.51026393
1.521994135
1.536656891
1.551319648
1.56402737
1.575757576
1.585532747
1.592375367
1.596285435
1.596285435
1.593352884
1.588465298
1.582600196
1.573802542
1.563049853
1.551319648
1.538611926
1.522971652
1.505376344
1.486803519
1.469208211
1.451612903
1.432062561
1.410557185
1.393939394
1.379276637
1.362658847
1.34799609
1.33431085
1.322580645
1.314760508
1.311827957
1.312805474
1.318670577
1.332355816
1.355816227
1.387096774
1.431085044
1.498533724
1.591397849
1.710654936
1.854349951
2.015640274
2.187683284
2.361681329
2.52688172
2.676441838
2.803519062
2.904203324
2.970674487
3.008797654
3.03030303
3.032258065
3.014662757
2.977517107
2.9257087
2.859237537
2.779081134
2.68914956
2.592375367
2.48973607
2.395894428
2.305962854
2.210166178
2.115347019
2.026392962
1.946236559
1.876832845
1.819159335
1.774193548
1.73998045
1.716520039
1.7028348
1.69599218
1.69599218
1.705767351
1.721407625
1.738025415
1.754643206
1.77028348
1.785923754
1.80058651
1.813294233
1.823069404
1.829912023
1.831867058
1.830889541
1.826001955
1.816226784
1.803519062
1.786901271
1.768328446
1.748778104
1.72629521
1.7028348
1.679374389
1.654936461
1.627565982
1.602150538
1.578690127
1.551319648
1.523949169
1.498533724
1.476050831
1.455522972
1.436950147
1.421309873
1.408602151
1.400782014
1.397849462
1.402737048
1.41544477
1.437927664
1.476050831
1.536656891
1.619745846
1.727272727
1.856304985
2.002932551
2.157380254
2.309872923
2.453567937
2.579667644
2.671554252
2.736070381
2.786901271
2.819159335
2.828934506
2.817204301
2.784946237
2.736070381
2.673509286
2.600195503
2.518084066
2.428152493
2.333333333
2.245356794
2.160312805
2.065493646
1.967741935
1.870967742
1.780058651
1.697947214
1.627565982
1.568914956
1.523949169
1.491691105
1.470185728
1.458455523
1.453567937
1.45259042
1.455522972
1.461388074
1.469208211
1.478005865
1.488758553
1.498533724
1.507331378
1.513196481
1.516129032
1.515151515
1.511241447
1.504398827
1.492668622
1.477028348
1.458455523
1.438905181
1.418377322
1.398826979
1.380254154
1.361681329
1.339198436
1.314760508
1.294232649
1.27370479
1.246334311
1.217986315
1.191593353
1.168132942
1.146627566
1.128054741
1.112414467
1.099706745
1.089931574
1.085043988
1.088954057
1.102639296
1.131964809
1.183773216
1.263929619
1.372434018
1.505376344
1.657869013
1.820136852
1.982404692
2.134897361
2.271749756
2.387096774
2.468230694
2.521994135
2.563049853
2.585532747
2.586510264
2.567937439
2.532746823
2.482893451
2.42228739
2.351906158
2.271749756
2.184750733
2.092864125
2.009775171
1.929618768
1.839687195
1.746823069
1.655913978
1.569892473
1.493646139
1.42913001
1.37829912
1.340175953
1.314760508
1.299120235
1.291300098
1.288367546
1.287390029
1.286412512
1.286412512
1.286412512
1.289345064
1.293255132
1.298142717
1.30400782
1.309872923
1.314760508
1.31769306
1.318670577
1.318670577
1.313782991
1.305962854
1.296187683
1.286412512
1.277614858
1.267839687
1.256109482
1.240469208
1.220918866
1.198435973
1.17888563
1.160312805
1.136852395
1.113391984
1.091886608
1.073313783
1.057673509
1.044965787
1.035190616
1.03030303
1.029325513
1.036168133
1.056695992
1.086999022
1.132942326
1.204301075
1.30400782
1.433040078
1.585532747
1.755620723
1.93255132
2.106549365
2.268817204
2.411534702
2.529814272
2.612903226
2.666666667
2.703812317
2.71945259
2.713587488
2.68914956
2.649071359
2.596285435
2.530791789
2.456500489
2.374389052
2.286412512
2.194525904
2.110459433
2.03030303
1.941348974
1.849462366
1.759530792
1.676441838
1.603128055
1.542521994
1.49657869
1.464320626
1.443792766
1.433040078
1.430107527
1.430107527
1.432062561
1.434995112
1.440860215
1.447702835
1.456500489
1.46627566
1.477028348
1.487781036
1.49657869
1.50342131
1.508308895
1.51026393
1.506353861
1.498533724
1.488758553
1.479960899
1.471163245
1.461388074
1.45259042
1.441837732
1.42913001
1.414467253
1.398826979
1.386119257
1.372434018
1.352883675
1.331378299
1.31085044
1.292277615
1.277614858
1.267839687
1.263929619
1.26686217
1.275659824
1.291300098
1.312805474
1.34115347
1.38514174
1.449657869
1.539589443
1.653958944
1.793743891
1.955034213
2.131964809
2.314760508
2.491691105
2.653958944
2.793743891
2.894428152
2.963831867
3.019550342
3.053763441
3.063538612
3.051808407
3.018572825
2.966764418
2.900293255
2.822091887
2.73313783
2.634408602
2.54056696
2.449657869
2.349951124
2.246334311
2.144672532
2.047898338
1.960899316
1.884652981
1.819159335
1.765395894
1.725317693
1.69599218
1.675464321
1.663734115
1.65884653
1.65884653
1.662756598
1.670576735
1.680351906
1.690127077
1.698924731
1.706744868
1.714565005
1.720430108
1.722385142
1.721407625
1.718475073
1.712609971
1.704789834
1.694037146
1.680351906
1.66568915
1.649071359
1.629521017
1.608993157
1.588465298
1.567937439
1.545454545
1.525904203
1.507331378
1.486803519
1.464320626
1.441837732
1.419354839
1.399804497
1.384164223
1.372434018
1.364613881
1.360703812
1.360703812
1.364613881
1.373411535
1.388074291
1.413489736
1.454545455
1.518084066
1.60801564
1.727272727
1.871945259
2.035190616
2.209188661
2.383186706
2.54740958
2.677419355
2.778103617
2.869990225
2.942326491
2.991202346
3.014662757
3.013685239
2.990224829
2.947214076
2.886608016
2.811339198
2.725317693
2.641251222
2.555229717
2.455522972
2.348973607
2.239491691
2.130009775
2.025415445
1.928641251
1.841642229
1.766373412
1.703812317
1.654936461
1.618768328
1.597262952
1.585532747
1.578690127
1.576735093
1.580645161
1.588465298
1.599217986
1.611925709
1.622678397
1.633431085
1.642228739
1.647116325
1.650048876
1.649071359
1.641251222
1.6285435
1.613880743
1.596285435
1.576735093
1.557184751
1.536656891
1.515151515
1.492668622
1.467253177
1.439882698
1.416422287
1.395894428
1.370478983
1.342130987
1.314760508
1.289345064
1.26686217
1.248289345
1.232649071
1.219941349
1.210166178
1.204301075
1.204301075
1.210166178
1.2228739
1.247311828
1.288367546
1.35483871
1.447702835
1.569892473
1.717497556
1.88172043
2.055718475
2.226783969
2.386119257
2.509286413
2.602150538
2.681329423
2.739002933
2.773216031
2.782991202
2.771260997
2.741935484
2.697947214
2.640273705
2.57086999
2.491691105
2.414467253
2.336265885
2.245356794
2.146627566
2.04398827
1.941348974
1.842619746
1.749755621
1.664711632
1.591397849
1.529814272
1.478983382
1.438905181
1.412512219
1.394916911
1.380254154
1.3714565
1.367546432
1.366568915
1.369501466
1.374389052
1.381231672
1.390029326
1.397849462
1.403714565
1.408602151
1.412512219
1.413489736
1.411534702
1.404692082
1.395894428
1.38514174
1.370478983
1.353861193
1.335288368
1.315738025
1.295210166
1.277614858
1.262952102
1.242424242
1.218963832
1.193548387
1.169110459
1.146627566
1.126099707
1.106549365
1.089931574
1.076246334
1.065493646
1.058651026
1.058651026
1.069403715
1.091886608
1.132942326
1.196480938
1.289345064
1.411534702
1.559139785
1.727272727
1.909090909
2.093841642
2.269794721
2.410557185
2.522971652
2.627565982
2.712609971
2.773216031
2.806451613
2.815249267
2.799608993
2.764418377
2.714565005
2.65200391
2.579667644
2.497556207
2.417399804
2.335288368
2.2228739
2.095796676
1.980449658
1.871945259
1.772238514
1.681329423
1.600195503
1.530791789
1.47311828
1.428152493
1.397849462
1.37829912
1.363636364
1.35483871
1.351906158
1.352883675
1.356793744
1.362658847
1.369501466
1.375366569
1.380254154
1.384164223
1.387096774
1.391006843
1.394916911
1.395894428
1.394916911
1.392961877
1.389051808
1.383186706
1.373411535
1.359726295
1.343108504
1.323558162
1.300097752
1.279569892
1.26001955
1.237536657
1.213098729
1.187683284
1.163245357
1.140762463
1.120234604
1.102639296
1.088954057
1.079178886
1.072336266
1.070381232
1.075268817
1.08797654
1.110459433
1.146627566
1.204301075
1.288367546
1.401759531
1.542521994
1.706744868
1.884652981
2.069403715
2.250244379
2.395894428
2.514173998
2.627565982
2.723362659
2.794721408
2.839687195
2.861192571
2.860215054
2.838709677
2.80058651
2.747800587
2.681329423
2.603128055
2.524926686
2.445747801
2.353861193
2.255131965
2.153470186
2.05083089
1.952101662
1.861192571
1.779081134
1.707722385
1.649071359
1.602150538
1.567937439
1.546432063
1.531769306
1.523949169
1.522971652
1.52688172
1.534701857
1.545454545
1.557184751
1.568914956
1.580645161
1.591397849
1.602150538
1.610948192
1.617790811
1.622678397
1.625610948
1.625610948
1.622678397
1.613880743
1.601173021
1.585532747
1.566959922
1.546432063
1.523949169
1.50342131
1.483870968
1.462365591
1.438905181
1.413489736
1.386119257
1.357771261
1.330400782
1.30400782
1.279569892
1.259042033
1.24340176
1.232649071
1.22971652
1.232649071
1.242424242
1.263929619
1.301075269
1.358748778
1.440860215
1.550342131
1.685239492
1.842619746
2.014662757
2.191593353
2.342130987
2.474095797
2.60801564
2.728250244
2.827956989
2.900293255
2.945259042
2.96285435
2.95601173
2.927663734
2.880742913
2.817204301
2.740957967
2.663734115
2.583577713
2.488758553
2.38514174
2.278592375
2.172043011
2.068426197
1.96969697
1.877810362
1.793743891
1.721407625
1.662756598
1.619745846
1.589442815
1.565982405
1.552297165
1.545454545
1.545454545
1.550342131
1.559139785
1.568914956
1.578690127
1.588465298
1.598240469
1.607038123
1.612903226
1.617790811
1.619745846
1.617790811
1.609970674
1.597262952
1.581622678
1.563049853
1.542521994
1.519061584
1.493646139
1.469208211
1.448680352
1.430107527
1.407624633
1.379276637
1.34799609
1.315738025
1.283479961
1.251221896
1.220918866
1.190615836
1.163245357
1.139784946
1.123167155
1.112414467
1.103616813
1.100684262
1.108504399
1.130009775
1.171065494
1.234604106
1.326490714
1.444770283
1.588465298
1.749755621
1.919843597
2.06744868
2.197458456
2.329423265
2.449657869
2.54740958
2.619745846
2.664711632
2.683284457
2.677419355
2.651026393
2.607038123
2.548387097
2.485826002
2.419354839
2.339198436
2.248289345
2.1485826
2.04398827
1.936461388
1.830889541
1.730205279
1.636363636
1.551319648
1.475073314
1.411534702
1.366568915
1.33431085
1.306940371
1.286412512
1.271749756
1.262952102
1.259042033
1.26001955
1.263929619
1.268817204
1.274682307
1.28054741
1.285434995
1.289345064
1.291300098
1.292277615
1.292277615
1.289345064
1.284457478
1.277614858
1.267839687
1.240469208
1.203323558
1.174975562
1.1485826
1.128054741
1.108504399
1.084066471
1.057673509
1.031280547
1.003910068
0.978494624
0.95601173
0.936461388
0.919843597
0.906158358
0.896383187
0.892473118
0.894428152
0.899315738
0.91202346
0.937438905
0.981427175
1.051808407
1.151515152
1.28054741
1.436950147
1.612903226
1.80058651
1.989247312
2.146627566
2.277614858
2.403714565
2.512218964
2.596285435
2.65200391
2.680351906
2.683284457
2.663734115
2.626588465
2.574780059
2.511241447
2.446725318
2.377321603
2.295210166
2.204301075
2.106549365
2.004887586
1.900293255
1.797653959
1.700879765
1.609970674
1.52688172
1.454545455
1.392961877
1.34799609
1.315738025
1.290322581
1.272727273
1.263929619
1.262952102
1.267839687
1.277614858
1.290322581
1.305962854
1.322580645
1.338220919
1.351906158
1.362658847
1.3714565
1.375366569
1.374389052
1.370478983
1.362658847
1.351906158
1.338220919
1.322580645
1.305962854
1.288367546
1.268817204
1.251221896
1.233626588
1.210166178
1.184750733
1.160312805
1.135874878
1.11143695
1.089931574
1.0742913
1.064516129
1.060606061
1.061583578
1.06744868
1.076246334
1.08797654
1.107526882
1.138807429
1.187683284
1.26001955
1.359726295
1.48973607
1.647116325
1.827956989
2.021505376
2.216031281
2.37829912
2.515151515
2.650048876
2.766373412
2.856304985
2.915933529
2.946236559
2.952101662
2.934506354
2.896383187
2.843597263
2.7771261
2.705767351
2.630498534
2.54056696
2.438905181
2.328445748
2.214076246
2.099706745
1.931573803
1.826979472
1.732160313
1.612903226
1.556207234
1.516129032
1.481915934
1.458455523
1.446725318
1.444770283
1.451612903
1.472140762
1.48973607
1.508308895
1.544477028
1.561094819
1.575757576
1.599217986
1.607038123
1.611925709
1.610948192
1.606060606
1.598240469
1.586510264
1.571847507
1.556207234
1.542521994
1.529814272
1.514173998
1.497556207
1.478983382
1.458455523
1.434995112
1.410557185
1.386119257
1.362658847
1.342130987
1.324535679
1.31085044
1.302052786
1.298142717
1.296187683
1.298142717
1.305962854
1.322580645
1.353861193
1.403714565
1.477028348
1.578690127
1.708699902
1.865102639
2.013685239
2.158357771
2.322580645
2.488758553
2.643206256
2.775171065
2.878787879
2.951124145
2.992179863
3.005865103
2.996089932
2.963831867
2.91202346
2.853372434
2.785923754
2.703812317
2.608993157
2.505376344
2.395894428
2.285434995
2.175953079
2.070381232
1.96969697
1.875855327
1.791788856
1.72629521
1.675464321
1.632453568
1.600195503
1.57771261
1.565982405
1.563049853
1.566959922
1.573802542
1.582600196
1.591397849
1.599217986
1.605083089
1.60801564
1.60801564
1.605083089
1.601173021
1.596285435
1.588465298
1.576735093
1.560117302
1.539589443
1.518084066
1.494623656
1.469208211
1.446725318
1.425219941
1.398826979
1.368523949
1.33431085
1.298142717
1.258064516
1.216031281
1.173020528
1.130009775
1.088954057
1.052785924
1.019550342
0.996089932
0.980449658
0.964809384
0.952101662
0.945259042
0.951124145
0.973607038
1.017595308
1.090909091
1.194525904
1.329423265
1.488758553
1.640273705
1.787878788
1.954056696
2.123167155
2.275659824
2.397849462
2.488758553
2.549364614
2.581622678
2.587487781
2.569892473
2.534701857
2.484848485
2.42913001
2.367546432
2.291300098
2.203323558
2.107526882
2.005865103
1.901270772
1.794721408
1.68914956
1.588465298
1.495601173
1.412512219
1.348973607
1.301075269
1.257086999
1.220918866
1.194525904
1.177908113
1.169110459
1.166177908
1.167155425
1.169110459
1.170087977
1.170087977
1.170087977
1.171065494
1.173020528
1.172043011
1.171065494
1.169110459
1.164222874
1.157380254
1.146627566
1.132942326
1.116324536
1.098729228
1.080156403
1.065493646
1.052785924
1.035190616
1.014662757
0.992179863
0.967741935
0.944281525
0.921798631
0.901270772
0.882697947
0.866080156
0.850439883
0.836754643
0.829912023
0.827956989
0.826979472
0.830889541
0.843597263
0.872922776
0.922776149
1
1.106549365
1.240469208
1.399804497
1.575757576
1.735092864
1.88172043
2.036168133
2.181818182
2.307917889
2.409579668
2.483870968
2.531769306
2.554252199
2.554252199
2.534701857
2.498533724
2.450635386
2.398826979
2.342130987
2.271749756
2.189638319
2.098729228
2.002932551
1.904203324
1.805474096
1.710654936
1.620723363
1.539589443
1.469208211
1.417399804
1.37829912
1.345063539
1.320625611
1.305962854
1.300097752
1.300097752
1.304985337
1.313782991
1.324535679
1.336265885
1.34799609
1.359726295
1.370478983
1.379276637
1.38514174
1.388074291
1.388074291
1.38514174
1.380254154
1.3714565
1.360703812
1.348973607
1.33431085
1.31769306
1.302052786
1.287390029
1.268817204
1.248289345
1.226783969
1.203323558
1.179863148
1.158357771
1.138807429
1.119257087
1.100684262
1.085043988
1.076246334
1.072336266
1.070381232
1.071358749
1.079178886
1.096774194
1.130987292
1.187683284
1.269794721
1.379276637
1.516129032
1.676441838
1.8514174
2.007820137
2.150537634
2.302052786
2.445747801
2.57086999
2.669599218
2.740957967
2.784946237
2.804496579
2.801564027
2.779081134
2.740957967
2.695014663
2.641251222
2.575757576
2.500488759
2.417399804
2.328445748
2.234604106
2.136852395
2.041055718
1.948191593
1.861192571
1.782013685
1.711632454
1.655913978
1.613880743
1.57771261
1.54740958
1.524926686
1.51026393
1.502443793
1.500488759
1.50342131
1.51026393
1.520039101
1.530791789
1.542521994
1.553274682
1.561094819
1.566959922
1.57086999
1.574780059
1.576735093
1.575757576
1.571847507
1.566959922
1.559139785
1.548387097
1.534701857
1.521016618
1.507331378
1.491691105
1.47311828
1.45259042
1.431085044
1.409579668
1.388074291
1.368523949
1.351906158
1.337243402
1.323558162
1.313782991
1.308895406
1.304985337
1.303030303
1.305962854
1.314760508
1.33431085
1.369501466
1.425219941
1.505376344
1.610948192
1.73998045
1.890518084
2.03030303
2.164222874
2.315738025
2.467253177
2.606060606
2.725317693
2.820136852
2.889540567
2.931573803
2.94916911
2.943304008
2.916911046
2.878787879
2.830889541
2.77028348
2.697947214
2.61485826
2.522971652
2.425219941
2.323558162
2.220918866
2.119257087
2.022482893
1.933528837
1.853372434
1.790811339
1.73998045
1.694037146
1.656891496
1.6285435
1.608993157
1.598240469
1.595307918
1.599217986
1.639296188
1.696969697
1.73313783
1.757575758
1.775171065
1.789833822
1.801564027
1.811339198
1.818181818
1.82111437
1.82111437
1.817204301
1.80742913
1.794721408
1.779081134
1.761485826
1.744868035
1.729227761
1.709677419
1.687194526
1.664711632
1.641251222
1.616813294
1.591397849
1.565982405
1.54056696
1.516129032
1.493646139
1.477028348
1.463343109
1.449657869
1.437927664
1.42913001
1.427174976
1.433040078
1.450635386
1.483870968
1.536656891
1.613880743
1.713587488
1.835777126
1.954056696
2.071358749
2.207233627
2.345063539
2.47311828
2.581622678
2.668621701
2.730205279
2.765395894
2.7771261
2.766373412
2.737047898
2.697947214
2.651026393
2.590420332
2.520039101
2.440860215
2.353861193
2.26001955
2.161290323
2.062561095
1.965786901
1.872922776
1.787878788
1.711632454
1.65200391
1.606060606
1.56402737
1.529814272
1.504398827
1.487781036
1.478005865
1.47311828
1.47311828
1.478005865
1.485826002
1.494623656
1.50342131
1.509286413
1.514173998
1.516129032
1.516129032
1.514173998
1.51026393
1.50342131
1.494623656
1.482893451
1.467253177
1.447702835
1.431085044
1.414467253
1.39198436
1.366568915
1.338220919
1.309872923
1.28054741
1.252199413
1.224828935
1.197458456
1.172043011
1.149560117
1.130009775
1.116324536
1.107526882
1.097751711
1.088954057
1.084066471
1.086021505
1.099706745
1.129032258
1.177908113
1.251221896
1.350928641
1.476050831
1.599217986
1.725317693
1.871945259
2.022482893
2.165200391
2.292277615
2.397849462
2.480938416
2.538611926
2.572825024
2.585532747
2.579667644
2.558162268
2.527859238
2.487781036
2.43597263
2.374389052
2.303030303
2.2228739
2.136852395
2.046920821
1.95601173
1.867057674
1.782013685
1.701857283
1.637341153
1.58455523
1.532746823
1.487781036
1.451612903
1.425219941
1.407624633
1.397849462
1.395894428
1.400782014
1.410557185
1.421309873
1.432062561
1.441837732
1.450635386
1.457478006
1.462365591
1.465298143
1.465298143
1.463343109
1.45943304
1.453567937
1.445747801
1.434995112
1.42228739
1.412512219
1.402737048
1.390029326
1.374389052
1.356793744
1.338220919
1.319648094
1.300097752
1.278592375
1.257086999
1.23655914
1.217986315
1.201368524
1.189638319
1.181818182
1.173020528
1.165200391
1.16226784
1.167155425
1.182795699
1.214076246
1.265884653
1.342130987
1.443792766
1.569892473
1.695014663
1.822091887
1.96969697
2.121212121
2.265884653
2.396871945
2.507331378
2.593352884
2.653958944
2.690127077
2.705767351
2.7028348
2.68230694
2.65200391
2.612903226
2.563049853
2.50342131
2.434017595
2.356793744
2.272727273
2.18572825
2.097751711
2.010752688
1.926686217
1.849462366
1.787878788
1.738025415
1.690127077
1.651026393
1.62170088
1.602150538
1.590420332
1.58455523
1.58455523
1.588465298
1.596285435
1.606060606
1.616813294
1.626588465
1.637341153
1.647116325
1.654936461
1.661779081
1.668621701
1.673509286
1.677419355
1.679374389
1.678396872
1.675464321
1.669599218
1.663734115
1.655913978
1.644183773
1.629521017
1.612903226
1.594330401
1.574780059
1.554252199
1.534701857
1.516129032
1.497556207
1.479960899
1.465298143
1.454545455
1.446725318
1.439882698
1.42913001
1.420332356
1.421309873
1.431085044
1.451612903
1.485826002
1.537634409
1.612903226
1.714565005
1.822091887
1.940371457
2.090909091
2.26001955
2.433040078
2.599217986
2.750733138
2.880742913
2.984359726
3.059628543
3.107526882
3.129032258
3.126099707
3.10459433
3.066471163
3.014662757
2.950146628
2.87487781
2.790811339
2.698924731
2.601173021
2.498533724
2.392961877
2.289345064
2.190615836
2.106549365
2.034213099
1.963831867
1.900293255
1.847507331
1.80742913
1.780058651
1.76344086
1.754643206
1.752688172
1.75659824
1.76344086
1.772238514
1.780058651
1.788856305
1.798631476
1.80742913
1.813294233
1.816226784
1.817204301
1.816226784
1.812316716
1.803519062
1.789833822
1.773216031
1.75659824
1.73998045
1.721407625
1.700879765
1.676441838
1.651026393
1.624633431
1.599217986
1.572825024
1.546432063
1.520039101
1.495601173
1.477028348
1.461388074
1.443792766
1.424242424
1.404692082
1.390029326
1.380254154
1.374389052
1.374389052
1.384164223
1.406647116
1.448680352
1.515151515
1.592375367
1.684261975
1.809384164
1.960899316
2.127077224
2.298142717
2.460410557
2.605083089
2.72629521
2.819159335
2.88172043
2.915933529
2.923753666
2.910068426
2.880742913
2.835777126
2.7771261
2.705767351
2.624633431
2.535679374
2.437927664
2.333333333
2.224828935
2.114369501
2.005865103
1.914956012
1.838709677
1.761485826
1.691104594
1.631476051
1.581622678
1.543499511
1.518084066
1.501466276
1.493646139
1.491691105
1.495601173
1.502443793
1.511241447
1.521016618
1.528836755
1.534701857
1.539589443
1.541544477
1.539589443
1.534701857
1.52688172
1.518084066
1.508308895
1.49657869
1.485826002
1.474095797
1.457478006
1.436950147
1.413489736
1.390029326
1.365591398
1.339198436
1.311827957
1.284457478
1.257086999
1.230694037
1.211143695
1.195503421
1.179863148
1.164222874
1.150537634
1.139784946
1.133919844
1.133919844
1.143695015
1.165200391
1.203323558
1.262952102
1.348973607
1.443792766
1.553274682
1.694037146
1.856304985
2.03030303
2.203323558
2.365591398
2.508308895
2.623655914
2.710654936
2.769305963
2.801564027
2.809384164
2.796676442
2.767350929
2.723362659
2.66568915
2.594330401
2.513196481
2.423264907
2.325513196
2.223851417
2.120234604
2.015640274
1.913978495
1.827956989
1.753665689
1.679374389
1.608993157
1.54740958
1.49657869
1.456500489
1.428152493
1.410557185
1.401759531
1.399804497
1.402737048
1.409579668
1.417399804
1.426197458
1.434017595
1.441837732
1.448680352
1.45259042
1.453567937
1.453567937
1.451612903
1.446725318
1.437927664
1.427174976
1.417399804
1.406647116
1.39198436
1.373411535
1.352883675
1.330400782
1.307917889
1.284457478
1.259042033
1.232649071
1.206256109
1.181818182
1.163245357
1.147605083
1.128054741
1.108504399
1.090909091
1.076246334
1.06744868
1.064516129
1.068426197
1.082111437
1.110459433
1.160312805
1.234604106
1.319648094
1.421309873
1.557184751
1.717497556
1.892473118
2.071358749
2.245356794
2.403714565
2.539589443
2.650048876
2.730205279
2.782991202
2.80742913
2.809384164
2.794721408
2.764418377
2.718475073
2.659824047
2.589442815
2.509286413
2.420332356
2.324535679
2.196480938
2.053763441
1.933528837
1.839687195
1.761485826
1.68230694
1.608993157
1.544477028
1.48973607
1.447702835
1.418377322
1.398826979
1.387096774
1.383186706
1.384164223
1.389051808
1.395894428
1.404692082
1.412512219
1.417399804
1.421309873
1.425219941
1.42913001
1.431085044
1.430107527
1.428152493
1.425219941
1.423264907
1.421309873
1.418377322
1.413489736
1.406647116
1.397849462
1.387096774
1.374389052
1.360703812
1.344086022
1.328445748
1.311827957
1.295210166
1.283479961
1.272727273
1.26001955
1.248289345
1.237536657
1.228739003
1.223851417
1.221896383
1.224828935
1.233626588
1.250244379
1.276637341
1.311827957
1.359726295
1.433040078
1.532746823
1.656891496
1.802541544
1.963831867
2.130987292
2.295210166
2.448680352
2.58455523
2.696969697
2.784946237
2.839687195
2.869012708
2.882697947
2.876832845
2.853372434
2.813294233
2.760508309
2.696969697
2.625610948
2.546432063
2.436950147
2.321603128
2.250244379
2.190615836
2.114369501
2.032258065
1.952101662
1.877810362
1.812316716
1.757575758
1.713587488
1.680351906
1.654936461
1.639296188
1.632453568
1.630498534
1.633431085
1.639296188
1.648093842
1.65884653
1.670576735
1.68230694
1.693059629
1.703812317
1.712609971
1.717497556
1.718475073
1.715542522
1.707722385
1.701857283
1.69599218
1.68230694
1.667644184
1.651026393
1.632453568
1.618768328
1.602150538
1.576735093
1.553274682
1.53372434
1.511241447
1.48973607
1.474095797
1.456500489
1.43597263
1.418377322
1.404692082
1.392961877
1.386119257
1.382209189
1.382209189
1.387096774
1.398826979
1.410557185
1.440860215
1.504398827
1.588465298
1.695014663
1.822091887
1.966764418
2.121212121
2.276637341
2.424242424
2.556207234
2.653958944
2.723362659
2.780058651
2.816226784
2.830889541
2.825024438
2.797653959
2.753665689
2.696969697
2.6285435
2.550342131
2.464320626
2.381231672
2.299120235
2.205278592
2.10459433
2.004887586
1.909090909
1.820136852
1.73998045
1.671554252
1.61485826
1.569892473
1.537634409
1.518084066
1.509286413
1.507331378
1.509286413
1.514173998
1.520039101
1.525904203
1.531769306
1.535679374
1.537634409
1.538611926
1.538611926
1.536656891
1.534701857
1.530791789
1.522971652
1.512218964
1.497556207
1.479960899
1.45943304
1.438905181
1.417399804
1.392961877
1.367546432
1.342130987
1.315738025
1.293255132
1.27370479
1.249266862
1.223851417
1.19941349
1.176930596
1.15542522
1.135874878
1.11827957
1.10459433
1.092864125
1.086021505
1.086021505
1.094819159
1.11143695
1.142717498
1.193548387
1.268817204
1.369501466
1.494623656
1.639296188
1.795698925
1.956989247
2.11143695
2.251221896
2.356793744
2.434017595
2.497556207
2.54056696
2.560117302
2.558162268
2.537634409
2.500488759
2.449657869
2.387096774
2.314760508
2.232649071
2.153470186
2.075268817
1.984359726
1.886608016
1.788856305
1.694037146
1.605083089
1.523949169
1.45259042
1.392961877
1.347018573
1.312805474
1.287390029
1.271749756
1.263929619
1.26001955
1.260997067
1.264907136
1.271749756
1.28054741
1.290322581
1.300097752
1.308895406
1.315738025
1.319648094
1.323558162
1.325513196
1.324535679
1.321603128
1.303030303
1.274682307
1.254154448
1.235581623
1.217008798
1.197458456
1.175953079
1.153470186
1.135874878
1.120234604
1.097751711
1.073313783
1.048875855
1.023460411
1
0.979472141
0.960899316
0.945259042
0.933528837
0.9257087
0.923753666
0.928641251
0.941348974
0.96285435
0.999022483
1.054740958
1.137829912
1.251221896
1.392961877
1.560117302
1.744868035
1.938416422
2.128054741
2.281524927
2.405669599
2.522971652
2.619745846
2.691104594
2.736070381
2.754643206
2.749755621
2.724340176
2.681329423
2.622678397
2.551319648
2.470185728
2.391006843
2.309872923
2.217986315
2.119257087
2.016617791
1.913978495
1.81427175
1.71945259
1.633431085
1.558162268
1.494623656
1.443792766
1.409579668
1.387096774
1.3714565
1.363636364
1.362658847
1.366568915
1.374389052
1.383186706
1.391006843
1.397849462
1.403714565
1.408602151
1.413489736
1.418377322
1.42228739
1.423264907
1.42228739
1.418377322
1.410557185
1.399804497
1.38514174
1.368523949
1.348973607
1.328445748
1.307917889
1.290322581
1.27370479
1.252199413
1.22971652
1.203323558
1.174975562
1.146627566
1.119257087
1.093841642
1.072336266
1.054740958
1.043010753
1.036168133
1.036168133
1.041055718
1.049853372
1.068426197
1.101661779
1.156402737
1.237536657
1.347018573
1.484848485
1.648093842
1.829912023
2.019550342
2.182795699
2.325513196
2.472140762
2.605083089
2.715542522
2.799608993
2.855327468
2.883675464
2.885630499
2.866080156
2.827956989
2.776148583
2.712609971
2.64516129
2.574780059
2.493646139
2.403714565
2.306940371
2.205278592
2.103616813
2.004887586
1.91202346
1.827956989
1.754643206
1.693059629
1.648093842
1.616813294
1.592375367
1.576735093
1.567937439
1.565982405
1.571847507
1.581622678
1.592375367
1.605083089
1.619745846
1.633431085
1.64516129
1.655913978
1.663734115
1.669599218
1.674486804
1.677419355
1.678396872
1.677419355
1.673509286
1.667644184
1.657869013
1.64516129
1.629521017
1.615835777
1.602150538
1.58455523
1.565004888
1.543499511
1.521016618
1.499511241
1.478005865
1.456500489
1.436950147
1.418377322
1.401759531
1.389051808
1.382209189
1.379276637
1.37829912
1.379276637
1.38514174
1.399804497
1.428152493
1.475073314
1.543499511
1.637341153
1.75659824
1.900293255
2.040078201
2.17888563
2.339198436
2.502443793
2.654936461
2.788856305
2.897360704
2.978494624
3.033235582
3.060606061
3.060606061
3.036168133
2.99315738
2.940371457
2.877810362
2.80058651
2.712609971
2.617790811
2.517106549
2.411534702
2.305962854
2.201368524
2.099706745
2.004887586
1.919843597
1.853372434
1.799608993
1.750733138
1.711632454
1.68230694
1.661779081
1.650048876
1.646138807
1.648093842
1.656891496
1.669599218
1.683284457
1.694037146
1.701857283
1.708699902
1.714565005
1.718475073
1.718475073
1.715542522
1.710654936
1.703812317
1.694037146
1.681329423
1.66568915
1.649071359
1.633431085
1.617790811
1.598240469
1.574780059
1.549364614
1.522971652
1.497556207
1.470185728
1.439882698
1.409579668
1.380254154
1.350928641
1.328445748
1.311827957
1.293255132
1.274682307
1.258064516
1.245356794
1.237536657
1.235581623
1.242424242
1.262952102
1.302052786
1.374389052
1.475073314
1.573802542
1.678396872
1.809384164
1.957966764
2.11143695
2.260997067
2.396871945
2.514173998
2.606060606
2.671554252
2.709677419
2.723362659
2.715542522
2.692082111
2.653958944
2.604105572
2.542521994
2.469208211
2.388074291
2.300097752
2.207233627
2.110459433
2.012707722
1.915933529
1.824046921
1.748778104
1.685239492
1.62170088
1.565004888
1.518084066
1.480938416
1.453567937
1.436950147
1.428152493
1.426197458
1.426197458
1.42913001
1.434995112
1.441837732
1.447702835
1.451612903
1.455522972
1.458455523
1.45943304
1.457478006
1.454545455
1.448680352
1.438905181
1.427174976
1.413489736
1.401759531
1.390029326
1.373411535
1.352883675
1.330400782
1.307917889
1.285434995
1.261974585
1.239491691
1.217986315
1.196480938
1.175953079
1.160312805
1.147605083
1.132942326
1.120234604
1.108504399
1.099706745
1.094819159
1.095796676
1.105571848
1.129032258
1.173020528
1.242424242
1.339198436
1.443792766
1.559139785
1.703812317
1.864125122
2.028347996
2.18572825
2.327468231
2.446725318
2.538611926
2.603128055
2.641251222
2.656891496
2.65200391
2.631476051
2.597262952
2.550342131
2.491691105
2.423264907
2.347018573
2.263929619
2.175953079
2.083088954
1.988269795
1.893450635
1.802541544
1.727272727
1.662756598
1.599217986
1.541544477
1.491691105
1.450635386
1.421309873
1.401759531
1.390029326
1.38514174
1.38514174
1.389051808
1.395894428
1.405669599
1.414467253
1.420332356
1.425219941
1.42913001
1.431085044
1.430107527
1.427174976
1.423264907
1.417399804
1.411534702
1.403714565
1.396871945
1.390029326
1.37829912
1.362658847
1.345063539
1.327468231
1.307917889
1.286412512
1.263929619
1.240469208
1.216031281
1.191593353
1.173020528
1.159335288
1.142717498
1.126099707
1.11143695
1.100684262
1.094819159
1.093841642
1.099706745
1.116324536
1.146627566
1.196480938
1.269794721
1.352883675
1.450635386
1.580645161
1.73313783
1.899315738
2.069403715
2.232649071
2.380254154
2.505376344
2.606060606
2.679374389
2.725317693
2.743890518
2.740957967
2.723362659
2.690127077
2.644183773
2.587487781
2.521016618
2.446725318
2.365591398
2.276637341
2.181818182
2.084066471
1.987292278
1.904203324
1.831867058
1.755620723
1.683284457
1.618768328
1.565982405
1.524926686
1.494623656
1.475073314
1.462365591
1.456500489
1.454545455
1.456500489
1.461388074
1.467253177
1.47311828
1.479960899
1.484848485
1.488758553
1.491691105
1.491691105
1.490713587
1.486803519
1.480938416
1.476050831
1.471163245
1.464320626
1.453567937
1.440860215
1.428152493
1.414467253
1.398826979
1.381231672
1.361681329
1.343108504
1.325513196
1.308895406
1.296187683
1.285434995
1.271749756
1.257086999
1.241446725
1.226783969
1.216031281
1.211143695
1.212121212
1.217986315
1.230694037
1.254154448
1.283479961
1.323558162
1.38514174
1.472140762
1.585532747
1.721407625
1.876832845
2.045943304
2.217008798
2.381231672
2.530791789
2.65884653
2.760508309
2.826979472
2.865102639
2.889540567
2.894428152
2.880742913
2.852394917
2.810361681
2.755620723
2.691104594
2.617790811
2.536656891
2.449657869
2.368523949
2.290322581
2.204301075
2.117302053
2.034213099
1.954056696
1.877810362
1.812316716
1.759530792
1.717497556
1.687194526
1.667644184
1.657869013
1.654936461
1.657869013
1.666666667
1.679374389
1.693059629
1.706744868
1.71945259
1.731182796
1.741935484
1.750733138
1.757575758
1.760508309
1.762463343
1.76344086
1.761485826
1.757575758
1.750733138
1.740957967
1.728250244
1.712609971
1.694037146
1.672531769
1.649071359
1.624633431
1.601173021
1.581622678
1.56402737
1.542521994
1.519061584
1.495601173
1.47311828
1.451612903
1.432062561
1.41544477
1.402737048
1.392961877
1.388074291
1.390029326
1.396871945
1.410557185
1.433040078
1.471163245
1.529814272
1.612903226
1.723362659
1.860215054
2.015640274
2.183773216
2.35483871
2.521016618
2.654936461
2.762463343
2.863147605
2.944281525
3.000977517
3.031280547
3.03714565
3.018572825
2.980449658
2.926686217
2.859237537
2.779081134
2.698924731
2.615835777
2.519061584
2.41544477
2.308895406
2.201368524
2.097751711
2.002932551
1.91886608
1.84457478
1.782991202
1.732160313
1.692082111
1.66568915
1.650048876
1.641251222
1.640273705
1.64516129
1.654936461
1.667644184
1.680351906
1.691104594
1.699902248
1.707722385
1.712609971
1.714565005
1.714565005
1.711632454
1.706744868
1.699902248
1.690127077
1.676441838
1.65884653
1.637341153
1.613880743
1.588465298
1.561094819
1.532746823
1.508308895
1.487781036
1.464320626
1.436950147
1.407624633
1.37829912
1.349951124
1.320625611
1.293255132
1.267839687
1.244379277
1.223851417
1.209188661
1.19941349
1.189638319
1.182795699
1.184750733
1.201368524
1.235581623
1.293255132
1.379276637
1.493646139
1.632453568
1.789833822
1.958944282
2.107526882
2.239491691
2.377321603
2.504398827
2.607038123
2.68230694
2.729227761
2.750733138
2.745845552
2.71945259
2.674486804
2.613880743
2.550342131
2.481915934
2.398826979
2.305962854
2.205278592
2.099706745
1.99315738
1.887585533
1.785923754
1.691104594
1.606060606
1.532746823
1.472140762
1.428152493
1.396871945
1.3714565
1.353861193
1.342130987
1.335288368
1.333333333
1.336265885
1.34115347
1.347018573
1.353861193
1.359726295
1.365591398
1.369501466
1.369501466
1.367546432
1.364613881
1.360703812
1.353861193
1.343108504
1.329423265
1.312805474
1.293255132
1.27370479
1.259042033
1.244379277
1.223851417
1.201368524
1.176930596
1.153470186
1.130009775
1.10459433
1.077223851
1.051808407
1.03030303
1.010752688
0.99315738
0.984359726
0.979472141
0.975562072
0.975562072
0.985337243
1.007820137
1.05083089
1.119257087
1.215053763
1.338220919
1.487781036
1.656891496
1.813294233
1.960899316
2.122189638
2.277614858
2.41544477
2.530791789
2.616813294
2.674486804
2.704789834
2.710654936
2.694037146
2.65884653
2.608993157
2.555229717
2.495601173
2.42228739
2.336265885
2.241446725
2.14173998
2.040078201
1.937438905
1.838709677
1.745845552
1.659824047
1.583577713
1.524926686
1.480938416
1.439882698
1.406647116
1.383186706
1.370478983
1.365591398
1.365591398
1.368523949
1.372434018
1.377321603
1.382209189
1.387096774
1.39198436
1.396871945
1.401759531
1.405669599
1.407624633
1.406647116
1.403714565
1.397849462
1.387096774
1.373411535
1.359726295
1.348973607
1.344086022
1.336265885
1.321603128
1.30400782
1.284457478
1.263929619
1.241446725
1.217986315
1.195503421
1.173998045
1.152492669
1.131964809
1.113391984
1.100684262
1.092864125
1.085043988
1.079178886
1.078201369
1.083088954
1.099706745
1.132942326
1.187683284
1.267839687
1.37829912
1.517106549
1.653958944
1.792766373
1.95601173
2.126099707
2.291300098
2.440860215
2.566959922
2.66568915
2.735092864
2.778103617
2.794721408
2.788856305
2.76344086
2.725317693
2.678396872
2.619745846
2.550342131
2.47311828
2.388074291
2.298142717
2.204301075
2.108504399
2.012707722
1.921798631
1.836754643
1.767350929
1.711632454
1.65884653
1.612903226
1.57771261
1.553274682
1.537634409
1.530791789
1.530791789
1.536656891
1.546432063
1.558162268
1.57086999
1.581622678
1.591397849
1.602150538
1.610948192
1.616813294
1.62170088
1.625610948
1.6285435
1.629521017
1.627565982
1.623655914
1.615835777
1.608993157
1.602150538
1.592375367
1.580645161
1.565982405
1.548387097
1.529814272
1.511241447
1.492668622
1.475073314
1.457478006
1.439882698
1.42228739
1.408602151
1.396871945
1.38514174
1.375366569
1.367546432
1.361681329
1.359726295
1.361681329
1.369501466
1.383186706
1.408602151
1.450635386
1.502443793
1.569892473
1.668621701
1.794721408
1.946236559
2.114369501
2.288367546
2.45943304
2.619745846
2.761485826
2.877810362
2.967741935
3.028347996
3.057673509
3.064516129
3.054740958
3.028347996
2.985337243
2.926686217
2.857282502
2.779081134
2.691104594
2.596285435
2.497556207
2.395894428
2.303030303
2.218963832
2.131964809
2.046920821
1.968719453
1.899315738
1.839687195
1.790811339
1.752688172
1.72629521
1.711632454
1.704789834
1.7028348
1.706744868
1.715542522
1.72629521
1.739002933
1.751710655
1.76344086
1.772238514
1.780058651
1.784946237
1.786901271
1.785923754
1.782013685
1.778103617
1.771260997
1.761485826
1.747800587
1.730205279
1.712609971
1.694037146
1.673509286
1.651026393
1.6285435
1.605083089
1.581622678
1.562072336
1.544477028
1.521994135
1.498533724
1.474095797
1.450635386
1.42913001
1.408602151
1.39198436
1.381231672
1.376344086
1.376344086
1.381231672
1.39198436
1.410557185
1.443792766
1.495601173
1.569892473
1.667644184
1.788856305
1.929618768
2.08113392
2.237536657
2.389051808
2.527859238
2.633431085
2.710654936
2.7771261
2.823069404
2.845552297
2.84457478
2.822091887
2.781036168
2.724340176
2.655913978
2.575757576
2.485826002
2.387096774
2.294232649
2.205278592
2.107526882
2.007820137
1.909090909
1.817204301
1.734115347
1.661779081
1.601173021
1.551319648
1.513196481
1.486803519
1.472140762
1.465298143
1.463343109
1.464320626
1.469208211
1.476050831
1.482893451
1.488758553
1.491691105
1.492668622
1.493646139
1.491691105
1.487781036
1.485826002
1.483870968
1.478983382
1.471163245
1.45943304
1.444770283
1.42913001
1.410557185
1.390029326
1.368523949
1.345063539
1.319648094
1.298142717
1.279569892
1.258064516
1.234604106
1.210166178
1.186705767
1.164222874
1.142717498
1.123167155
1.106549365
1.091886608
1.078201369
1.06744868
1.065493646
1.072336266
1.092864125
1.133919844
1.197458456
1.271749756
1.366568915
1.498533724
1.653958944
1.82111437
1.989247312
2.147605083
2.272727273
2.370478983
2.457478006
2.522971652
2.565982405
2.585532747
2.583577713
2.562072336
2.524926686
2.476050831
2.41544477
2.344086022
2.262952102
2.18572825
2.107526882
2.017595308
1.921798631
1.825024438
1.731182796
1.643206256
1.562072336
1.490713587
1.42913001
1.379276637
1.342130987
1.318670577
1.30400782
1.293255132
1.287390029
1.287390029
1.291300098
1.2971652
1.304985337
1.311827957
1.31769306
1.321603128
1.325513196
1.328445748
1.330400782
1.331378299
1.329423265
1.324535679
1.31769306
1.309872923
1.300097752
1.287390029
1.271749756
1.254154448
1.234604106
1.213098729
1.195503421
1.179863148
1.160312805
1.138807429
1.116324536
1.093841642
1.072336266
1.051808407
1.031280547
1.013685239
0.999022483
0.988269795
0.982404692
0.983382209
0.989247312
1.000977517
1.024437928
1.065493646
1.129032258
1.219941349
1.340175953
1.485826002
1.65200391
1.829912023
2.009775171
2.159335288
2.285434995
2.406647116
2.509286413
2.588465298
2.641251222
2.669599218
2.675464321
2.660801564
2.630498534
2.585532747
2.528836755
2.462365591
2.395894428
2.326490714
2.245356794
2.156402737
2.062561095
1.965786901
1.869990225
1.7771261
1.690127077
1.612903226
1.545454545
1.490713587
1.45259042
1.427174976
1.406647116
1.392961877
1.386119257
1.38514174
1.388074291
1.393939394
1.402737048
1.410557185
1.417399804
1.421309873
1.424242424
1.427174976
1.426197458
1.423264907
1.419354839
1.413489736
1.405669599
1.395894428
1.386119257
1.374389052
1.360703812
1.345063539
1.329423265
1.318670577
1.309872923
1.298142717
1.282502444
1.264907136
1.245356794
1.226783969
1.207233627
1.18572825
1.163245357
1.139784946
1.117302053
1.100684262
1.088954057
1.077223851
1.068426197
1.063538612
1.062561095
1.06744868
1.08113392
1.107526882
1.152492669
1.2228739
1.320625611
1.447702835
1.575757576
1.710654936
1.87487781
2.05083089
2.2228739
2.381231672
2.519061584
2.631476051
2.715542522
2.773216031
2.805474096
2.815249267
2.805474096
2.781036168
2.743890518
2.694037146
2.632453568
2.561094819
2.481915934
2.395894428
2.304985337
2.210166178
2.115347019
2.023460411
1.935483871
1.863147605
1.803519062
1.747800587
1.699902248
1.660801564
1.632453568
1.613880743
1.605083089
1.602150538
1.604105572
1.609970674
1.617790811
1.625610948
1.633431085
1.640273705
1.647116325
1.653958944
1.660801564
1.66568915
1.668621701
1.669599218
1.670576735
1.668621701
1.664711632
1.657869013
1.649071359
1.640273705
1.6285435
1.613880743
1.596285435
1.575757576
1.554252199
1.53372434
1.513196481
1.490713587
1.468230694
1.447702835
1.432062561
1.419354839
1.406647116
1.395894428
1.388074291
1.384164223
1.384164223
1.390029326
1.399804497
1.416422287
1.444770283
1.486803519
1.546432063
1.612903226
1.693059629
1.804496579
1.938416422
2.08797654
2.246334311
2.402737048
2.549364614
2.678396872
2.783968719
2.865102639
2.919843597
2.945259042
2.948191593
2.934506354
2.904203324
2.85826002
2.798631476
2.728250244
2.648093842
2.561094819
2.469208211
2.3714565
2.270772239
2.176930596
2.096774194
2.022482893
1.946236559
1.873900293
1.811339198
1.760508309
1.71945259
1.690127077
1.670576735
1.660801564
1.656891496
1.659824047
1.666666667
1.675464321
1.686217009
1.697947214
1.710654936
1.722385142
1.731182796
1.736070381
1.739002933
1.738025415
1.734115347
1.727272727
1.717497556
1.706744868
1.69599218
1.681329423
1.664711632
1.648093842
1.630498534
1.610948192
1.589442815
1.567937439
1.54740958
1.52688172
1.506353861
1.488758553
1.474095797
1.457478006
1.439882698
1.423264907
1.406647116
1.390029326
1.373411535
1.359726295
1.348973607
1.343108504
1.340175953
1.342130987
1.350928641
1.368523949
1.401759531
1.455522972
1.53372434
1.638318671
1.767350929
1.917888563
2.079178886
2.240469208
2.39198436
2.524926686
2.62170088
2.688172043
2.740957967
2.772238514
2.781036168
2.769305963
2.739002933
2.693059629
2.634408602
2.563049853
2.481915934
2.391006843
2.293255132
2.201368524
2.11143695
2.012707722
1.913000978
1.817204301
1.728250244
1.651026393
1.58455523
1.528836755
1.485826002
1.453567937
1.432062561
1.421309873
1.416422287
1.414467253
1.417399804
1.424242424
1.431085044
1.437927664
1.443792766
1.447702835
1.449657869
1.450635386
1.449657869
1.447702835
1.445747801
1.440860215
1.434017595
1.425219941
1.414467253
1.399804497
1.381231672
1.360703812
1.340175953
1.319648094
1.2971652
1.27370479
1.254154448
1.237536657
1.217986315
1.196480938
1.173020528
1.1485826
1.127077224
1.105571848
1.086999022
1.070381232
1.056695992
1.047898338
1.045943304
1.051808407
1.066471163
1.096774194
1.147605083
1.2228739
1.327468231
1.458455523
1.611925709
1.782013685
1.956989247
2.128054741
2.284457478
2.405669599
2.497556207
2.578690127
2.640273705
2.677419355
2.691104594
2.68230694
2.654936461
2.611925709
2.557184751
2.492668622
2.417399804
2.343108504
2.268817204
2.181818182
2.08797654
1.990224829
1.892473118
1.796676442
1.706744868
1.625610948
1.555229717
1.49657869
1.449657869
1.413489736
1.390029326
1.374389052
1.363636364
1.357771261
1.35483871
1.355816227
1.358748778
1.362658847
1.368523949
1.374389052
1.37829912
1.382209189
1.387096774
1.391006843
1.39198436
1.390029326
1.38514174
1.377321603
1.366568915
1.353861193
1.339198436
1.321603128
1.302052786
1.282502444
1.262952102
1.248289345
1.234604106
1.216031281
1.195503421
1.173020528
1.149560117
1.127077224
1.105571848
1.085043988
1.066471163
1.05083089
1.039100684
1.034213099
1.035190616
1.040078201
1.052785924
1.079178886
1.123167155
1.19257087
1.289345064
1.41544477
1.566959922
1.738025415
1.920821114
2.10459433
2.258064516
2.387096774
2.514173998
2.622678397
2.706744868
2.76344086
2.793743891
2.80058651
2.786901271
2.754643206
2.707722385
2.650048876
2.589442815
2.523949169
2.445747801
2.357771261
2.261974585
2.16226784
2.060606061
1.960899316
1.866080156
1.7771261
1.696969697
1.626588465
1.566959922
1.522971652
1.48973607
1.462365591
1.444770283
1.43597263
1.433040078
1.434995112
1.439882698
1.445747801
1.451612903
1.455522972
1.457478006
1.458455523
1.460410557
1.461388074
1.461388074
1.460410557
1.456500489
1.456500489
1.457478006
1.450635386
1.438905181
1.424242424
1.406647116
1.38514174
1.367546432
1.351906158
1.331378299
1.307917889
1.28054741
1.253176931
1.226783969
1.200391007
1.173998045
1.1485826
1.126099707
1.107526882
1.095796676
1.088954057
1.082111437
1.076246334
1.076246334
1.086021505
1.107526882
1.146627566
1.208211144
1.300097752
1.424242424
1.578690127
1.758553275
1.927663734
2.092864125
2.279569892
2.46627566
2.638318671
2.784946237
2.901270772
2.986314761
3.040078201
3.065493646
3.066471163
3.046920821
3.011730205
2.965786901
2.909090909
2.840664712
2.760508309
2.669599218
2.57086999
2.467253177
2.360703812
2.254154448
2.151515152
2.054740958
1.974584555
1.907135875
1.842619746
1.785923754
1.73998045
1.705767351
1.683284457
1.670576735
1.664711632
1.66568915
1.671554252
1.680351906
1.691104594
1.700879765
1.709677419
1.720430108
1.731182796
1.740957967
1.748778104
1.754643206
1.75659824
1.754643206
1.750733138
1.744868035
1.736070381
1.72629521
1.715542522
1.701857283
1.686217009
1.668621701
1.650048876
1.6285435
1.605083089
1.582600196
1.560117302
1.537634409
1.515151515
1.493646139
1.478005865
1.464320626
1.448680352
1.434017595
1.423264907
1.417399804
1.41544477
1.417399804
1.423264907
1.438905181
1.467253177
1.512218964
1.565982405
1.637341153
1.742913001
1.878787879
2.040078201
2.219941349
2.407624633
2.591397849
2.761485826
2.911045943
3.032258065
3.122189638
3.179863148
3.205278592
3.205278592
3.187683284
3.151515152
3.097751711
3.03030303
2.950146628
2.859237537
2.760508309
2.653958944
2.542521994
2.42913001
2.327468231
2.233626588
2.135874878
2.042033236
1.956989247
1.882697947
1.82111437
1.771260997
1.734115347
1.708699902
1.694037146
1.68914956
1.690127077
1.693059629
1.697947214
1.704789834
1.712609971
1.720430108
1.727272727
1.73313783
1.736070381
1.736070381
1.734115347
1.729227761
1.720430108
1.710654936
1.701857283
1.690127077
1.674486804
1.657869013
1.639296188
1.619745846
1.599217986
1.57771261
1.556207234
1.53372434
1.511241447
1.487781036
1.468230694
1.449657869
1.427174976
1.402737048
1.37829912
1.35483871
1.330400782
1.306940371
1.285434995
1.265884653
1.250244379
1.241446725
1.239491691
1.246334311
1.26686217
1.305962854
1.367546432
1.455522972
1.572825024
1.718475073
1.885630499
2.065493646
2.247311828
2.42228739
2.579667644
2.697947214
2.783968719
2.856304985
2.905180841
2.928641251
2.926686217
2.900293255
2.853372434
2.789833822
2.712609971
2.624633431
2.52688172
2.432062561
2.336265885
2.226783969
2.11143695
1.996089932
1.884652981
1.782013685
1.691104594
1.611925709
1.545454545
1.492668622
1.454545455
1.428152493
1.413489736
1.405669599
1.401759531
1.401759531
1.404692082
1.410557185
1.417399804
1.42228739
1.427174976
1.431085044
1.433040078
1.432062561
1.431085044
1.427174976
1.420332356
1.410557185
1.398826979
1.383186706
1.365591398
1.344086022
1.319648094
1.292277615
1.264907136
1.237536657
1.211143695
1.190615836
1.173020528
1.150537634
1.127077224
1.10459433
1.082111437
1.059628543
1.03714565
1.017595308
1.001955034
0.989247312
0.978494624
0.984359726
1.001955034
1.020527859
1.049853372
1.096774194
1.169110459
1.269794721
1.398826979
1.553274682
1.724340176
1.903225806
2.080156403
2.245356794
2.373411535
2.47311828
2.562072336
2.630498534
2.674486804
2.694037146
2.691104594
2.668621701
2.631476051
2.581622678
2.521994135
2.453567937
2.386119257
2.316715543
2.234604106
2.144672532
2.048875855
1.950146628
1.853372434
1.761485826
1.676441838
1.600195503
1.53372434
1.478983382
1.438905181
1.411534702
1.390029326
1.374389052
1.366568915
1.362658847
1.362658847
1.364613881
1.368523949
1.373411535
1.37829912
1.382209189
1.38514174
1.389051808
1.39198436
1.39198436
1.390029326
1.38514174
1.377321603
1.367546432
1.35483871
1.34115347
1.328445748
1.313782991
1.296187683
1.281524927
1.267839687
1.249266862
1.227761486
1.203323558
1.175953079
1.1485826
1.123167155
1.100684262
1.08113392
1.063538612
1.049853372
1.040078201
1.036168133
1.036168133
1.03714565
1.042033236
1.057673509
1.089931574
1.142717498
1.221896383
1.330400782
1.467253177
1.627565982
1.805474096
1.965786901
2.113391984
2.270772239
2.420332356
2.550342131
2.653958944
2.728250244
2.773216031
2.792766373
2.788856305
2.766373412
2.728250244
2.676441838
2.62170088
2.561094819
2.487781036
2.403714565
2.312805474
2.216031281
2.117302053
2.017595308
1.919843597
1.825024438
1.736070381
1.654936461
1.592375367
1.543499511
1.498533724
1.462365591
1.436950147
1.42228739
1.41544477
1.41544477
1.420332356
1.427174976
1.433040078
1.437927664
1.440860215
1.442815249
1.442815249
1.440860215
1.437927664
1.434995112
1.432062561
1.428152493
1.421309873
1.413489736
1.404692082
1.393939394
1.380254154
1.368523949
1.356793744
1.34115347
1.323558162
1.304985337
1.285434995
1.264907136
1.24340176
1.220918866
1.198435973
1.174975562
1.151515152
1.130009775
1.114369501
1.103616813
1.092864125
1.084066471
1.078201369
1.076246334
1.078201369
1.08797654
1.108504399
1.145650049
1.205278592
1.290322581
1.386119257
1.497556207
1.644183773
1.81427175
1.996089932
2.177908113
2.348973607
2.500488759
2.626588465
2.724340176
2.793743891
2.834799609
2.8514174
2.847507331
2.827956989
2.794721408
2.748778104
2.691104594
2.623655914
2.548387097
2.465298143
2.375366569
2.279569892
2.179863148
2.08113392
1.995112414
1.919843597
1.84457478
1.775171065
1.715542522
1.666666667
1.6285435
1.602150538
1.586510264
1.579667644
1.579667644
1.585532747
1.594330401
1.604105572
1.613880743
1.624633431
1.633431085
1.641251222
1.647116325
1.651026393
1.652981427
1.652981427
1.651026393
1.647116325
1.641251222
1.634408602
1.6285435
1.620723363
1.609970674
1.596285435
1.581622678
1.565004888
1.546432063
1.527859238
1.508308895
1.487781036
1.467253177
1.446725318
1.431085044
1.418377322
1.403714565
1.388074291
1.372434018
1.359726295
1.349951124
1.344086022
1.343108504
1.347018573
1.357771261
1.379276637
1.407624633
1.446725318
1.51026393
1.598240469
1.710654936
1.847507331
2.002932551
2.168132942
2.335288368
2.495601173
2.641251222
2.76344086
2.860215054
2.920821114
2.952101662
2.966764418
2.96285435
2.940371457
2.902248289
2.852394917
2.790811339
2.716520039
2.631476051
2.536656891
2.434995112
2.339198436
2.249266862
2.152492669
2.053763441
1.959921799
1.87487781
1.80058651
1.738025415
1.688172043
1.650048876
1.624633431
1.608993157
1.601173021
1.600195503
1.604105572
1.613880743
1.625610948
1.638318671
1.651026393
1.662756598
1.671554252
1.679374389
1.685239492
1.687194526
1.685239492
1.681329423
1.674486804
1.664711632
1.652981427
1.639296188
1.624633431
1.608993157
1.592375367
1.574780059
1.555229717
1.535679374
1.516129032
1.500488759
1.486803519
1.469208211
1.451612903
1.434017595
1.416422287
1.397849462
1.37829912
1.359726295
1.343108504
1.327468231
1.314760508
1.304985337
1.300097752
1.298142717
1.299120235
1.304985337
1.318670577
1.343108504
1.383186706
1.442815249
1.525904203
1.634408602
1.767350929
1.91886608
2.057673509
2.188660802
2.332355816
2.472140762
2.595307918
2.69599218
2.769305963
2.81427175
2.833822092
2.828934506
2.802541544
2.75659824
2.694037146
2.627565982
2.556207234
2.472140762
2.377321603
2.276637341
2.172043011
2.065493646
1.959921799
1.857282502
1.761485826
1.674486804
1.599217986
1.542521994
1.498533724
1.458455523
1.42913001
1.408602151
1.395894428
1.390029326
1.389051808
1.392961877
1.399804497
1.408602151
1.417399804
1.423264907
1.427174976
1.430107527
1.430107527
1.42913001
1.426197458
1.42228739
1.414467253
1.403714565
1.390029326
1.373411535
1.35483871
1.335288368
1.319648094
1.304985337
1.285434995
1.261974585
1.238514174
1.214076246
1.187683284
1.160312805
1.132942326
1.108504399
1.086021505
1.064516129
1.044965787
1.031280547
1.023460411
1.015640274
1.012707722
1.015640274
1.027370479
1.054740958
1.102639296
1.176930596
1.278592375
1.407624633
1.561094819
1.707722385
1.850439883
2.010752688
2.171065494
2.318670577
2.444770283
2.543499511
2.612903226
2.653958944
2.668621701
2.659824047
2.632453568
2.589442815
2.539589443
2.483870968
2.41544477
2.337243402
2.250244379
2.15542522
2.055718475
1.954056696
1.854349951
1.758553275
1.668621701
1.586510264
1.521016618
1.470185728
1.423264907
1.383186706
1.351906158
1.331378299
1.320625611
1.316715543
1.31769306
1.322580645
1.329423265
1.336265885
1.342130987
1.347018573
1.351906158
1.356793744
1.359726295
1.360703812
1.357771261
1.352883675
1.345063539
1.337243402
1.329423265
1.320625611
1.309872923
1.301075269
1.292277615
1.277614858
1.259042033
1.238514174
1.217008798
1.196480938
1.175953079
1.153470186
1.131964809
1.110459433
1.088954057
1.06744868
1.052785924
1.043010753
1.032258065
1.023460411
1.019550342
1.019550342
1.025415445
1.042033236
1.0742913
1.127077224
1.205278592
1.312805474
1.428152493
1.555229717
1.716520039
1.89540567
2.080156403
2.258064516
2.419354839
2.556207234
2.662756598
2.738025415
2.783968719
2.803519062
2.799608993
2.778103617
2.742913001
2.694037146
2.633431085
2.563049853
2.482893451
2.394916911
2.299120235
2.198435973
2.096774194
1.995112414
1.89540567
1.810361681
1.738025415
1.666666667
1.601173021
1.544477028
1.497556207
1.461388074
1.43597263
1.421309873
1.414467253
1.413489736
1.417399804
1.423264907
1.43597263
1.45259042
1.464320626
1.471163245
1.47311828
1.471163245
1.467253177
1.462365591
1.457478006
1.450635386
1.441837732
1.432062561
1.423264907
1.413489736
1.399804497
1.384164223
1.367546432
1.351906158
1.335288368
1.318670577
1.299120235
1.278592375
1.259042033
1.238514174
1.220918866
1.204301075
1.183773216
1.16226784
1.14173998
1.123167155
1.106549365
1.090909091
1.078201369
1.069403715
1.066471163
1.070381232
1.084066471
1.107526882
1.145650049
1.208211144
1.299120235
1.420332356
1.571847507
1.747800587
1.941348974
2.140762463
2.333333333
2.509286413
2.659824047
2.768328446
2.84457478
2.904203324
2.940371457
2.952101662
2.939393939
2.906158358
2.856304985
2.793743891
2.720430108
2.636363636
2.543499511
2.442815249
2.348973607
2.258064516
2.156402737
2.049853372
1.944281525
1.843597263
1.751710655
1.670576735
1.603128055
1.549364614
1.508308895
1.478983382
1.463343109
1.456500489
1.453567937
1.453567937
1.456500489
1.461388074
1.467253177
1.47311828
1.477028348
1.478983382
1.479960899
1.479960899
1.477028348
1.474095797
1.470185728
1.464320626
1.457478006
1.448680352
1.437927664
1.424242424
1.407624633
1.388074291
1.366568915
1.345063539
1.323558162
1.305962854
1.290322581
1.268817204
1.244379277
1.218963832
1.191593353
1.164222874
1.137829912
1.114369501
1.095796676
1.082111437
1.073313783
1.070381232
1.073313783
1.080156403
1.092864125
1.114369501
1.150537634
1.208211144
1.292277615
1.407624633
1.553274682
1.723362659
1.91202346
2.107526882
2.274682307
2.419354839
2.565982405
2.69599218
2.799608993
2.873900293
2.920821114
2.938416422
2.930596285
2.901270772
2.854349951
2.791788856
2.717497556
2.643206256
2.565004888
2.47311828
2.373411535
2.269794721
2.163245357
2.058651026
1.957966764
1.863147605
1.779081134
1.708699902
1.65200391
1.611925709
1.586510264
1.571847507
1.565004888
1.56402737
1.567937439
1.576735093
1.588465298
1.604105572
1.618768328
1.631476051
1.643206256
1.652981427
1.65884653
1.663734115
1.666666667
1.66568915
1.663734115
1.660801564
1.656891496
1.650048876
1.641251222
1.631476051
1.620723363
1.607038123
1.594330401
1.582600196
1.568914956
1.552297165
1.532746823
1.512218964
1.491691105
1.471163245
1.450635386
1.431085044
1.410557185
1.389051808
1.370478983
1.357771261
1.348973607
1.343108504
1.34115347
1.342130987
1.345063539
1.351906158
1.364613881
1.387096774
1.425219941
1.483870968
1.566959922
1.656891496
1.762463343
1.902248289
2.066471163
2.244379277
2.423264907
2.593352884
2.745845552
2.873900293
2.972629521
3.041055718
3.080156403
3.091886608
3.079178886
3.046920821
2.999022483
2.936461388
2.862170088
2.778103617
2.685239492
2.582600196
2.47311828
2.360703812
2.247311828
2.137829912
2.045943304
1.965786901
1.886608016
1.816226784
1.755620723
1.707722385
1.671554252
1.64516129
1.629521017
1.623655914
1.625610948
1.634408602
1.646138807
1.659824047
1.675464321
1.691104594
1.705767351
1.718475073
1.727272727
1.73313783
1.736070381
1.736070381
1.73313783
1.728250244
1.720430108
1.711632454
1.701857283
1.68914956
1.673509286
1.655913978
1.635386119
1.612903226
1.57086999
1.520039101
1.482893451
1.453567937
1.426197458
1.404692082
1.386119257
1.364613881
1.342130987
1.319648094
1.299120235
1.282502444
1.26686217
1.254154448
1.245356794
1.242424242
1.24340176
1.249266862
1.259042033
1.275659824
1.30400782
1.350928641
1.420332356
1.516129032
1.637341153
1.780058651
1.939393939
2.105571848
2.267839687
2.418377322
2.534701857
2.622678397
2.698924731
2.753665689
2.783968719
2.791788856
2.775171065
2.738025415
2.683284457
2.611925709
2.528836755
2.43597263
2.335288368
2.241446725
2.149560117
2.046920821
1.940371457
1.834799609
1.735092864
1.643206256
1.563049853
1.495601173
1.439882698
1.397849462
1.369501466
1.35483871
1.348973607
1.349951124
1.356793744
1.366568915
1.37829912
1.390029326
1.398826979
1.405669599
1.410557185
1.411534702
1.409579668
1.405669599
1.401759531
1.395894428
1.387096774
1.377321603
1.365591398
1.350928641
1.333333333
1.311827957
1.286412512
1.26001955
1.232649071
1.206256109
1.18572825
1.169110459
1.1485826
1.126099707
1.100684262
1.0742913
1.049853372
1.026392962
1.004887586
0.984359726
0.966764418
0.954056696
0.946236559
0.945259042
0.951124145
0.963831867
0.990224829
1.039100684
1.116324536
1.2228739
1.358748778
1.519061584
1.697947214
1.883675464
2.066471163
2.216031281
2.338220919
2.454545455
2.550342131
2.620723363
2.662756598
2.677419355
2.668621701
2.638318671
2.590420332
2.528836755
2.457478006
2.376344086
2.2971652
2.216031281
2.123167155
2.023460411
1.919843597
1.817204301
1.717497556
1.624633431
1.539589443
1.465298143
1.401759531
1.348973607
1.312805474
1.291300098
1.277614858
1.270772239
1.269794721
1.27370479
1.28054741
1.289345064
1.299120235
1.307917889
1.313782991
1.318670577
1.320625611
1.321603128
1.322580645
1.320625611
1.316715543
1.308895406
1.299120235
1.287390029
1.274682307
1.260997067
1.246334311
1.22971652
1.211143695
1.195503421
1.181818182
1.163245357
1.14173998
1.11827957
1.093841642
1.068426197
1.043010753
1.017595308
0.995112414
0.974584555
0.958944282
0.951124145
0.948191593
0.945259042
0.944281525
0.94916911
0.963831867
0.992179863
1.041055718
1.116324536
1.220918866
1.356793744
1.520039101
1.703812317
1.869990225
2.024437928
2.193548387
2.356793744
2.499511241
2.615835777
2.703812317
2.760508309
2.787878788
2.787878788
2.766373412
2.727272727
2.678396872
2.622678397
2.555229717
2.478005865
2.39198436
2.2971652
2.196480938
2.091886608
1.985337243
1.879765396
1.779081134
1.687194526
1.607038123
1.545454545
1.498533724
1.455522972
1.419354839
1.393939394
1.377321603
1.368523949
1.365591398
1.368523949
1.374389052
1.380254154
1.387096774
1.393939394
1.399804497
1.402737048
1.402737048
1.399804497
1.394916911
1.390029326
1.38514174
1.37829912
1.369501466
1.359726295
1.34799609
1.333333333
1.320625611
1.309872923
1.295210166
1.278592375
1.26001955
1.240469208
1.220918866
1.201368524
1.180840665
1.159335288
1.135874878
1.112414467
1.093841642
1.078201369
1.059628543
1.042033236
1.027370479
1.015640274
1.007820137
1.004887586
1.007820137
1.020527859
1.046920821
1.091886608
1.161290323
1.241446725
1.364613881
1.54056696
1.730205279
1.931573803
2.138807429
2.340175953
2.524926686
2.685239492
2.815249267
2.913000978
2.977517107
3.007820137
3.010752688
2.996089932
2.963831867
2.915933529
2.855327468
2.781036168
2.69599218
2.602150538
2.500488759
2.39198436
2.279569892
2.166177908
2.065493646
1.974584555
1.879765396
1.789833822
1.707722385
1.638318671
1.582600196
1.538611926
1.508308895
1.491691105
1.482893451
1.479960899
1.480938416
1.484848485
1.490713587
1.497556207
1.504398827
1.511241447
1.519061584
1.524926686
1.527859238
1.528836755
1.527859238
1.522971652
1.517106549
1.511241447
1.50342131
1.492668622
1.478983382
1.462365591
1.444770283
1.427174976
1.408602151
1.390029326
1.372434018
1.355816227
1.337243402
1.321603128
1.306940371
1.288367546
1.268817204
1.251221896
1.235581623
1.223851417
1.215053763
1.210166178
1.211143695
1.217008798
1.228739003
1.250244379
1.28054741
1.322580645
1.387096774
1.478983382
1.600195503
1.750733138
1.923753666
2.113391984
2.309872923
2.502443793
2.679374389
2.832844575
2.943304008
3.018572825
3.078201369
3.117302053
3.132942326
3.12512219
3.096774194
3.048875855
2.987292278
2.913978495
2.828934506
2.734115347
2.629521017
2.531769306
2.434995112
2.329423265
2.221896383
2.117302053
2.019550342
1.93255132
1.857282502
1.795698925
1.747800587
1.712609971
1.690127077
1.679374389
1.676441838
1.680351906
1.690127077
1.701857283
1.715542522
1.731182796
1.746823069
1.761485826
1.774193548
1.783968719
1.789833822
1.790811339
1.788856305
1.784946237
1.779081134
1.77028348
1.758553275
1.744868035
1.729227761
1.710654936
1.68914956
1.66568915
1.641251222
1.616813294
1.597262952
1.579667644
1.560117302
1.539589443
1.518084066
1.495601173
1.475073314
1.453567937
1.431085044
1.410557185
1.391006843
1.375366569
1.366568915
1.362658847
1.360703812
1.360703812
1.364613881
1.374389052
1.391006843
1.419354839
1.46627566
1.535679374
1.631476051
1.753665689
1.902248289
2.045943304
2.188660802
2.35483871
2.525904203
2.688172043
2.829912023
2.943304008
3.026392962
3.078201369
3.100684262
3.095796676
3.066471163
3.021505376
2.963831867
2.890518084
2.803519062
2.706744868
2.601173021
2.491691105
2.37829912
2.262952102
2.150537634
2.043010753
1.945259042
1.85826002
1.789833822
1.736070381
1.688172043
1.650048876
1.622678397
1.606060606
1.598240469
1.598240469
1.604105572
1.612903226
1.624633431
1.637341153
1.648093842
1.657869013
1.666666667
1.673509286
1.676441838
1.676441838
1.673509286
1.667644184
1.656891496
1.642228739
1.623655914
1.602150538
1.580645161
1.562072336
1.542521994
1.518084066
1.48973607
1.458455523
1.426197458
1.394916911
1.364613881
1.335288368
1.307917889
1.281524927
1.257086999
1.238514174
1.223851417
1.206256109
1.187683284
1.169110459
1.152492669
1.140762463
1.134897361
1.135874878
1.149560117
1.181818182
1.237536657
1.322580645
1.418377322
1.528836755
1.674486804
1.84457478
2.026392962
2.208211144
2.37829912
2.527859238
2.651026393
2.742913001
2.803519062
2.833822092
2.836754643
2.818181818
2.781036168
2.727272727
2.65884653
2.578690127
2.488758553
2.391006843
2.251221896
2.090909091
1.955034213
1.832844575
1.721407625
1.629521017
1.552297165
1.475073314
1.405669599
1.346041056
1.298142717
1.262952102
1.238514174
1.224828935
1.219941349
1.221896383
1.227761486
1.23655914
1.246334311
1.257086999
1.26686217
1.274682307
1.28054741
1.285434995
1.287390029
1.286412512
1.282502444
1.274682307
1.263929619
1.250244379
1.238514174
1.226783969
1.210166178
1.190615836
1.170087977
1.1485826
1.126099707
1.102639296
1.078201369
1.051808407
1.024437928
0.996089932
0.974584555
0.95601173
0.934506354
0.913000978
0.894428152
0.878787879
0.867057674
0.861192571
0.859237537
0.866080156
0.885630499
0.923753666
0.985337243
1.059628543
1.153470186
1.285434995
1.447702835
1.632453568
1.829912023
2.027370479
2.212121212
2.375366569
2.51026393
2.61485826
2.686217009
2.723362659
2.735092864
2.728250244
2.7028348
2.660801564
2.604105572
2.536656891
2.460410557
2.374389052
2.28054741
2.179863148
2.0742913
1.965786901
1.870967742
1.784946237
1.69599218
1.609970674
1.530791789
1.461388074
1.402737048
1.355816227
1.320625611
1.2971652
1.283479961
1.277614858
1.277614858
1.283479961
1.291300098
1.301075269
1.31085044
1.318670577
1.323558162
1.324535679
1.323558162
1.320625611
1.31769306
1.314760508
1.309872923
1.305962854
1.301075269
1.292277615
1.279569892
1.263929619
1.246334311
1.226783969
1.206256109
1.184750733
1.163245357
1.14173998
1.119257087
1.100684262
1.084066471
1.062561095
1.039100684
1.015640274
0.99315738
0.972629521
0.955034213
0.941348974
0.930596285
0.921798631
0.915933529
0.917888563
0.927663734
0.94916911
0.988269795
1.049853372
1.139784946
1.261974585
1.41544477
1.595307918
1.793743891
2
2.201368524
2.387096774
2.530791789
2.640273705
2.738025415
2.813294233
2.861192571
2.882697947
2.879765396
2.856304985
2.816226784
2.762463343
2.697947214
2.622678397
2.54740958
2.472140762
2.38514174
2.290322581
2.190615836
2.090909091
1.994134897
1.904203324
1.82111437
1.747800587
1.685239492
1.634408602
1.595307918
1.569892473
1.555229717
1.54740958
1.546432063
1.550342131
1.559139785
1.568914956
1.579667644
1.589442815
1.599217986
1.60801564
1.616813294
1.623655914
1.6285435
1.630498534
1.630498534
1.627565982
1.622678397
1.61485826
1.603128055
1.589442815
1.573802542
1.557184751
1.537634409
1.515151515
1.494623656
1.477028348
1.456500489
1.434995112
1.411534702
1.387096774
1.362658847
1.339198436
1.31769306
1.299120235
1.283479961
1.269794721
1.260997067
1.257086999
1.254154448
1.254154448
1.261974585
1.279569892
1.308895406
1.356793744
1.428152493
1.523949169
1.64516129
1.789833822
1.952101662
2.099706745
2.237536657
2.388074291
2.534701857
2.664711632
2.772238514
2.853372434
2.906158358
2.931573803
2.931573803
2.908113392
2.864125122
2.810361681
2.746823069
2.669599218
2.582600196
2.484848485
2.37829912
2.26686217
2.15542522
2.046920821
1.943304008
1.847507331
1.76344086
1.691104594
1.636363636
1.596285435
1.56402737
1.54056696
1.52688172
1.522971652
1.527859238
1.54056696
1.557184751
1.576735093
1.595307918
1.611925709
1.625610948
1.637341153
1.673509286
1.71945259
1.741935484
1.750733138
1.749755621
1.741935484
1.729227761
1.712609971
1.695014663
1.676441838
1.656891496
1.638318671
1.62170088
1.603128055
1.583577713
1.56402737
1.545454545
1.52688172
1.507331378
1.487781036
1.468230694
1.448680352
1.428152493
1.410557185
1.394916911
1.379276637
1.364613881
1.351906158
1.343108504
1.337243402
1.335288368
1.338220919
1.346041056
1.362658847
1.394916911
1.446725318
1.506353861
1.581622678
1.687194526
1.820136852
1.970674487
2.130987292
2.289345064
2.436950147
2.565982405
2.669599218
2.745845552
2.794721408
2.81427175
2.811339198
2.790811339
2.752688172
2.699902248
2.633431085
2.555229717
2.46627566
2.367546432
2.262952102
2.15542522
2.047898338
1.941348974
1.849462366
1.768328446
1.685239492
1.60801564
1.54056696
1.484848485
1.439882698
1.405669599
1.382209189
1.369501466
1.363636364
1.364613881
1.369501466
1.377321603
1.386119257
1.395894428
1.405669599
1.412512219
1.418377322
1.421309873
1.420332356
1.416422287
1.408602151
1.396871945
1.386119257
1.375366569
1.360703812
1.343108504
1.323558162
1.303030303
1.28054741
1.257086999
1.233626588
1.208211144
1.180840665
1.152492669
1.12512219
1.103616813
1.085043988
1.062561095
1.041055718
1.021505376
1.002932551
0.987292278
0.974584555
0.966764418
0.964809384
0.972629521
0.99315738
1.025415445
1.0742913
1.149560117
1.254154448
1.389051808
1.546432063
1.720430108
1.901270772
2.078201369
2.240469208
2.381231672
2.495601173
2.581622678
2.632453568
2.657869013
2.66568915
2.654936461
2.627565982
2.585532747
2.529814272
2.462365591
2.38514174
2.300097752
2.208211144
2.11143695
2.022482893
1.936461388
1.842619746
1.748778104
1.65884653
1.57771261
1.506353861
1.446725318
1.399804497
1.364613881
1.34115347
1.328445748
1.322580645
1.322580645
1.328445748
1.337243402
1.34799609
1.356793744
1.364613881
1.369501466
1.374389052
1.37829912
1.382209189
1.38514174
1.38514174
1.38514174
1.383186706
1.376344086
1.366568915
1.353861193
1.337243402
1.318670577
1.299120235
1.279569892
1.26001955
1.239491691
1.217986315
1.194525904
1.175953079
1.160312805
1.140762463
1.120234604
1.099706745
1.080156403
1.062561095
1.048875855
1.039100684
1.034213099
1.033235582
1.038123167
1.049853372
1.072336266
1.109481916
1.168132942
1.252199413
1.367546432
1.511241447
1.677419355
1.859237537
2.045943304
2.226783969
2.392961877
2.536656891
2.639296188
2.708699902
2.760508309
2.790811339
2.798631476
2.786901271
2.757575758
2.713587488
2.657869013
2.591397849
2.514173998
2.428152493
2.346041056
2.261974585
2.167155425
2.065493646
1.96285435
1.863147605
1.769305963
1.68230694
1.606060606
1.542521994
1.492668622
1.455522972
1.430107527
1.417399804
1.413489736
1.41544477
1.421309873
1.42913001
1.437927664
1.447702835
1.457478006
1.465298143
1.471163245
1.47311828
1.471163245
1.469208211
1.467253177
1.463343109
1.457478006
1.448680352
1.439882698
1.431085044
1.42228739
1.412512219
1.402737048
1.39198436
1.381231672
1.368523949
1.358748778
1.349951124
1.335288368
1.31769306
1.300097752
1.281524927
1.263929619
1.248289345
1.250244379
1.26001955
1.260997067
1.260997067
1.262952102
1.268817204
1.276637341
1.291300098
1.314760508
1.351906158
1.409579668
1.490713587
1.599217986
1.735092864
1.898338221
2.083088954
2.277614858
2.446725318
2.597262952
2.754643206
2.899315738
3.019550342
3.11143695
3.173998045
3.207233627
3.213098729
3.194525904
3.156402737
3.102639296
3.043010753
2.976539589
2.897360704
2.808406647
2.710654936
2.605083089
2.494623656
2.383186706
2.271749756
2.167155425
2.071358749
1.988269795
1.91886608
1.868035191
1.829912023
1.798631476
1.779081134
1.769305963
1.766373412
1.77028348
1.780058651
1.791788856
1.805474096
1.819159335
1.833822092
1.846529814
1.857282502
1.867057674
1.873900293
1.876832845
1.87487781
1.870967742
1.863147605
1.8514174
1.836754643
1.818181818
1.798631476
1.781036168
1.764418377
1.743890518
1.721407625
1.698924731
1.677419355
1.654936461
1.633431085
1.610948192
1.588465298
1.565982405
1.545454545
1.525904203
1.511241447
1.497556207
1.483870968
1.472140762
1.465298143
1.462365591
1.464320626
1.47311828
1.488758553
1.514173998
1.551319648
1.602150538
1.660801564
1.735092864
1.839687195
1.971652004
2.126099707
2.294232649
2.46627566
2.632453568
2.783968719
2.913978495
3.015640274
3.086999022
3.128054741
3.140762463
3.129032258
3.099706745
3.051808407
2.990224829
2.914956012
2.826979472
2.729227761
2.623655914
2.511241447
2.394916911
2.276637341
2.173998045
2.082111437
1.990224829
1.904203324
1.829912023
1.768328446
1.71945259
1.684261975
1.663734115
1.652981427
1.650048876
1.654936461
1.666666667
1.680351906
1.694037146
1.708699902
1.721407625
1.73313783
1.742913001
1.748778104
1.750733138
1.747800587
1.73998045
1.727272727
1.708699902
1.690127077
1.670576735
1.646138807
1.619745846
1.589442815
1.557184751
1.524926686
1.491691105
1.45943304
1.426197458
1.39198436
1.357771261
1.324535679
1.298142717
1.274682307
1.247311828
1.220918866
1.196480938
1.173998045
1.154447703
1.139784946
1.129032258
1.124144673
1.127077224
1.14173998
1.168132942
1.209188661
1.276637341
1.3714565
1.493646139
1.642228739
1.810361681
1.989247312
2.167155425
2.33431085
2.480938416
2.601173021
2.690127077
2.742913001
2.767350929
2.774193548
2.762463343
2.731182796
2.683284457
2.623655914
2.552297165
2.470185728
2.377321603
2.276637341
2.168132942
2.070381232
1.978494624
1.877810362
1.7771261
1.68230694
1.597262952
1.523949169
1.462365591
1.414467253
1.37829912
1.353861193
1.340175953
1.33431085
1.337243402
1.346041056
1.357771261
1.370478983
1.384164223
1.396871945
1.406647116
1.414467253
1.419354839
1.421309873
1.421309873
1.419354839
1.417399804
1.413489736
1.404692082
1.392961877
1.377321603
1.358748778
1.338220919
1.31769306
1.295210166
1.270772239
1.246334311
1.221896383
1.198435973
1.17888563
1.161290323
1.137829912
1.112414467
1.089931574
1.069403715
1.05083089
1.03714565
1.029325513
1.027370479
1.034213099
1.05083089
1.076246334
1.116324536
1.180840665
1.272727273
1.394916911
1.544477028
1.717497556
1.906158358
2.100684262
2.287390029
2.457478006
2.603128055
2.718475073
2.795698925
2.840664712
2.81427175
2.740957967
2.688172043
2.638318671
2.583577713
2.522971652
2.455522972
2.381231672
2.299120235
2.210166178
2.127077224
2.046920821
1.956989247
1.862170088
1.77028348
1.684261975
1.606060606
1.536656891
1.478983382
1.434017595
1.400782014
1.379276637
1.367546432
1.363636364
1.363636364
1.367546432
1.374389052
1.381231672
1.387096774
1.39198436
1.395894428
1.399804497
1.402737048
1.402737048
1.401759531
1.400782014
1.398826979
1.392961877
1.38514174
1.375366569
1.363636364
1.351906158
1.339198436
1.325513196
1.309872923
1.292277615
1.27370479
1.26001955
1.246334311
1.227761486
1.207233627
1.18572825
1.165200391
1.145650049
1.126099707
1.106549365
1.089931574
1.075268817
1.064516129
1.058651026
1.058651026
1.066471163
1.082111437
1.108504399
1.152492669
1.219941349
1.312805474
1.433040078
1.579667644
1.745845552
1.923753666
2.102639296
2.253176931
2.380254154
2.504398827
2.610948192
2.691104594
2.742913001
2.768328446
2.77028348
2.752688172
2.717497556
2.668621701
2.608993157
2.539589443
2.472140762
2.402737048
2.319648094
2.228739003
2.131964809
2.031280547
1.930596285
1.835777126
1.748778104
1.671554252
1.605083089
1.550342131
1.512218964
1.488758553
1.47311828
1.46627566
1.46627566
1.472140762
1.481915934
1.492668622
1.505376344
1.518084066
1.530791789
1.543499511
1.552297165
1.558162268
1.563049853
1.566959922
1.57086999
1.572825024
1.571847507
1.569892473
1.566959922
1.563049853
1.556207234
1.546432063
1.534701857
1.522971652
1.51026393
1.493646139
1.476050831
1.456500489
1.43597263
1.414467253
1.392961877
1.3714565
1.353861193
1.338220919
1.325513196
1.31769306
1.315738025
1.31769306
1.323558162
1.33431085
1.349951124
1.374389052
1.411534702
1.46627566
1.543499511
1.646138807
1.773216031
1.920821114
2.058651026
2.191593353
2.344086022
2.497556207
2.638318671
2.758553275
2.853372434
2.919843597
2.958944282
2.973607038
2.965786901
2.939393939
2.896383187
2.845552297
2.785923754
2.714565005
2.633431085
2.543499511
2.448680352
2.350928641
2.250244379
2.150537634
2.055718475
1.967741935
1.88856305
1.826001955
1.7771261
1.734115347
1.699902248
1.676441838
1.662756598
1.657869013
1.659824047
1.666666667
1.677419355
1.692082111
1.707722385
1.722385142
1.734115347
1.745845552
1.757575758
1.766373412
1.771260997
1.773216031
1.772238514
1.769305963
1.76344086
1.754643206
1.742913001
1.727272727
1.711632454
1.69599218
1.679374389
1.663734115
1.647116325
1.630498534
1.613880743
1.594330401
1.573802542
1.554252199
1.53372434
1.514173998
1.494623656
1.478983382
1.467253177
1.455522972
1.445747801
1.440860215
1.438905181
1.439882698
1.445747801
1.455522972
1.47311828
1.504398827
1.553274682
1.609970674
1.679374389
1.7771261
1.899315738
2.039100684
2.189638319
2.34115347
2.483870968
2.610948192
2.716520039
2.796676442
2.849462366
2.876832845
2.880742913
2.864125122
2.831867058
2.783968719
2.723362659
2.651026393
2.567937439
2.476050831
2.377321603
2.27370479
2.168132942
2.064516129
1.975562072
1.896383187
1.816226784
1.741935484
1.677419355
1.622678397
1.580645161
1.550342131
1.531769306
1.512218964
1.495601173
1.493646139
1.498533724
1.507331378
1.517106549
1.52688172
1.535679374
1.543499511
1.548387097
1.551319648
1.550342131
1.545454545
1.536656891
1.524926686
1.51026393
1.494623656
1.478005865
1.455522972
1.430107527
1.401759531
1.372434018
1.344086022
1.315738025
1.288367546
1.260997067
1.232649071
1.204301075
1.181818182
1.16226784
1.139784946
1.117302053
1.095796676
1.077223851
1.061583578
1.049853372
1.043010753
1.04398827
1.054740958
1.080156403
1.124144673
1.17888563
1.249266862
1.350928641
1.478983382
1.627565982
1.789833822
1.957966764
2.119257087
2.265884653
2.390029326
2.486803519
2.553274682
2.589442815
2.601173021
2.596285435
2.573802542
2.534701857
2.481915934
2.41544477
2.339198436
2.254154448
2.16226784
2.064516129
1.961876833
1.856304985
1.764418377
1.681329423
1.594330401
1.51026393
1.434995112
1.370478983
1.318670577
1.277614858
1.247311828
1.227761486
1.217986315
1.216031281
1.218963832
1.226783969
1.237536657
1.249266862
1.26001955
1.268817204
1.276637341
1.282502444
1.285434995
1.285434995
1.281524927
1.275659824
1.26686217
1.259042033
1.250244379
1.235581623
1.218963832
1.200391007
1.17888563
1.156402737
1.132942326
1.107526882
1.08113392
1.054740958
1.028347996
1.008797654
0.992179863
0.971652004
0.950146628
0.930596285
0.914956012
0.903225806
0.896383187
0.894428152
0.898338221
0.911045943
0.939393939
0.988269795
1.048875855
1.12512219
1.233626588
1.3714565
1.532746823
1.708699902
1.890518084
2.065493646
2.225806452
2.364613881
2.477028348
2.561094819
2.612903226
2.638318671
2.646138807
2.634408602
2.605083089
2.562072336
2.506353861
2.440860215
2.367546432
2.286412512
2.195503421
2.096774194
1.994134897
1.903225806
1.819159335
1.728250244
1.640273705
1.558162268
1.485826002
1.426197458
1.37829912
1.342130987
1.318670577
1.304985337
1.300097752
1.302052786
1.307917889
1.315738025
1.324535679
1.33431085
1.344086022
1.353861193
1.364613881
1.373411535
1.380254154
1.386119257
1.390029326
1.391006843
1.391006843
1.390029326
1.384164223
1.375366569
1.362658847
1.34799609
1.333333333
1.319648094
1.305962854
1.291300098
1.274682307
1.256109482
1.240469208
1.227761486
1.213098729
1.198435973
1.184750733
1.173020528
1.16226784
1.154447703
1.150537634
1.151515152
1.158357771
1.172043011
1.195503421
1.224828935
1.265884653
1.328445748
1.416422287
1.532746823
1.675464321
1.838709677
2.015640274
2.196480938
2.373411535
2.536656891
2.680351906
2.785923754
2.860215054
2.921798631
2.963831867
2.984359726
2.983382209
2.963831867
2.928641251
2.876832845
2.811339198
2.734115347
2.648093842
2.554252199
2.465298143
2.377321603
2.279569892
2.17888563
2.08113392
1.988269795
1.902248289
1.827956989
1.765395894
1.714565005
1.677419355
1.65200391
1.638318671
1.634408602
1.636363636
1.643206256
1.652981427
1.66568915
1.680351906
1.69599218
1.709677419
1.721407625
1.730205279
1.736070381
1.73998045
1.740957967
1.739002933
1.735092864
1.728250244
1.716520039
1.701857283
1.684261975
1.663734115
1.641251222
1.617790811
1.594330401
1.57086999
1.550342131
1.532746823
1.514173998
1.514173998
1.522971652
1.517106549
1.505376344
1.493646139
1.482893451
1.475073314
1.471163245
1.472140762
1.477028348
1.483870968
1.493646139
1.509286413
1.535679374
1.576735093
1.636363636
1.717497556
1.822091887
1.948191593
2.090909091
2.24340176
2.397849462
2.525904203
2.634408602
2.742913001
2.83773216
2.911045943
2.958944282
2.981427175
2.980449658
2.958944282
2.919843597
2.865102639
2.798631476
2.728250244
2.652981427
2.565004888
2.468230694
2.366568915
2.263929619
2.16226784
2.063538612
1.971652004
1.88856305
1.817204301
1.758553275
1.713587488
1.68230694
1.660801564
1.646138807
1.638318671
1.638318671
1.643206256
1.65200391
1.662756598
1.674486804
1.684261975
1.693059629
1.698924731
1.701857283
1.701857283
1.698924731
1.693059629
1.683284457
1.669599218
1.65200391
1.631476051
1.609970674
1.586510264
1.560117302
1.531769306
1.502443793
1.477028348
1.453567937
1.425219941
1.394916911
1.364613881
1.336265885
1.309872923
1.285434995
1.261974585
1.240469208
1.2228739
1.208211144
1.200391007
1.196480938
1.194525904
1.19941349
1.217008798
1.252199413
1.307917889
1.389051808
1.49657869
1.627565982
1.775171065
1.93255132
2.088954057
2.218963832
2.326490714
2.431085044
2.520039101
2.585532747
2.627565982
2.646138807
2.642228739
2.619745846
2.581622678
2.529814272
2.465298143
2.398826979
2.328445748
2.24340176
2.149560117
2.049853372
1.947214076
1.846529814
1.749755621
1.65884653
1.575757576
1.501466276
1.437927664
1.386119257
1.349951124
1.325513196
1.305962854
1.293255132
1.286412512
1.285434995
1.289345064
1.295210166
1.301075269
1.306940371
1.313782991
1.318670577
1.322580645
1.326490714
1.327468231
1.325513196
1.320625611
1.312805474
1.303030303
1.290322581
1.27370479
1.254154448
1.233626588
1.212121212
1.189638319
1.171065494
1.154447703
1.133919844
1.11143695
1.085043988
1.057673509
1.03030303
1.004887586
0.982404692
0.963831867
0.950146628
0.941348974
0.938416422
0.942326491
0.951124145
0.968719453
1
1.05083089
1.126099707
1.228739003
1.358748778
1.512218964
1.680351906
1.854349951
2.025415445
2.167155425
2.284457478
2.395894428
2.488758553
2.558162268
2.603128055
2.624633431
2.624633431
2.606060606
2.572825024
2.528836755
2.475073314
2.419354839
2.358748778
2.284457478
2.200391007
2.109481916
2.012707722
1.913978495
1.817204301
1.725317693
1.641251222
1.566959922
1.504398827
1.458455523
1.426197458
1.400782014
1.382209189
1.369501466
1.362658847
1.360703812
1.362658847
1.367546432
1.375366569
1.38514174
1.393939394
1.401759531
1.408602151
1.414467253
1.419354839
1.423264907
1.425219941
1.423264907
1.418377322
1.412512219
1.404692082
1.393939394
1.382209189
1.368523949
1.355816227
1.344086022
1.328445748
1.311827957
1.294232649
1.27370479
1.253176931
1.232649071
1.212121212
1.193548387
1.177908113
1.166177908
1.158357771
1.157380254
1.160312805
1.167155425
1.180840665
1.204301075
1.240469208
1.296187683
1.374389052
1.477028348
1.606060606
1.755620723
1.921798631
2.072336266
2.211143695
2.361681329
2.506353861
2.634408602
2.739002933
2.817204301
2.869012708
2.894428152
2.897360704
2.88172043
2.8514174
2.809384164
2.761485826
2.708699902
2.64516129
2.572825024
2.491691105
2.401759531
2.306940371
2.211143695
2.117302053
2.028347996
1.948191593
1.878787879
1.825024438
1.785923754
1.753665689
1.732160313
1.71945259
1.714565005
1.716520039
1.723362659
1.734115347
1.746823069
1.760508309
1.774193548
1.787878788
1.799608993
1.808406647
1.817204301
1.823069404
1.826001955
1.826979472
1.825024438
1.820136852
1.812316716
1.801564027
1.787878788
1.771260997
1.757575758
1.744868035
1.731182796
1.715542522
1.697947214
1.678396872
1.65884653
1.640273705
1.62170088
1.603128055
1.585532747
1.571847507
1.562072336
1.557184751
1.555229717
1.556207234
1.559139785
1.565982405
1.579667644
1.602150538
1.637341153
1.687194526
1.757575758
1.849462366
1.961876833
2.071358749
2.183773216
2.320625611
2.46627566
2.60801564
2.737047898
2.847507331
2.934506354
2.997067449
3.035190616
3.048875855
3.029325513
2.997067449
2.968719453
2.924731183
2.867057674
2.796676442
2.715542522
2.625610948
2.529814272
2.42913001
2.326490714
2.225806452
2.130987292
2.04398827
1.973607038
1.916911046
1.863147605
1.816226784
1.780058651
1.754643206
1.73998045
1.734115347
1.735092864
1.73998045
1.745845552
1.752688172
1.760508309
1.766373412
1.77028348
1.772238514
1.771260997
1.767350929
1.759530792
1.748778104
1.735092864
1.715542522
1.692082111
1.66568915
1.637341153
1.611925709
1.588465298
1.562072336
1.53372434
1.505376344
1.476050831
1.446725318
1.417399804
1.388074291
1.359726295
1.333333333
1.308895406
1.287390029
1.27370479
1.265884653
1.260997067
1.26001955
1.263929619
1.275659824
1.300097752
1.34115347
1.401759531
1.484848485
1.590420332
1.715542522
1.834799609
1.951124145
2.082111437
2.212121212
2.331378299
2.431085044
2.508308895
2.561094819
2.590420332
2.599217986
2.587487781
2.558162268
2.513196481
2.463343109
2.406647116
2.337243402
2.257086999
2.167155425
2.069403715
1.967741935
1.865102639
1.76344086
1.66568915
1.574780059
1.494623656
1.433040078
1.384164223
1.338220919
1.301075269
1.272727273
1.252199413
1.239491691
1.232649071
1.230694037
1.232649071
1.23655914
1.241446725
1.248289345
1.256109482
1.260997067
1.262952102
1.262952102
1.260997067
1.257086999
1.250244379
1.239491691
1.225806452
1.210166178
1.19257087
1.173020528
1.157380254
1.142717498
1.121212121
1.097751711
1.073313783
1.048875855
1.024437928
1.000977517
0.978494624
0.956989247
0.938416422
0.921798631
0.913000978
0.908113392
0.904203324
0.902248289
0.904203324
0.915933529
0.940371457
0.981427175
1.045943304
1.136852395
1.254154448
1.395894428
1.555229717
1.701857283
1.840664712
1.991202346
2.136852395
2.267839687
2.376344086
2.461388074
2.521994135
2.558162268
2.571847507
2.565982405
2.544477028
2.513196481
2.474095797
2.423264907
2.360703812
2.289345064
2.209188661
2.123167155
2.033235582
1.941348974
1.852394917
1.768328446
1.691104594
1.622678397
1.569892473
1.529814272
1.494623656
1.469208211
1.453567937
1.445747801
1.444770283
1.449657869
1.457478006
1.468230694
1.480938416
1.494623656
1.506353861
1.517106549
1.52688172
1.535679374
1.555229717
1.57771261
1.587487781
1.589442815
1.587487781
1.582600196
1.576735093
1.569892473
1.562072336
1.556207234
1.550342131
1.538611926
1.522971652
1.504398827
1.483870968
1.461388074
1.437927664
1.413489736
1.391006843
1.370478983
1.35483871
1.347018573
1.345063539
1.345063539
1.348973607
1.357771261
1.372434018
1.393939394
1.426197458
1.472140762
1.536656891
1.623655914
1.732160313
1.85826002
1.977517107
2.096774194
2.23655914
2.380254154
2.517106549
2.638318671
2.739002933
2.817204301
2.869990225
2.899315738
2.906158358
2.894428152
2.869012708
2.831867058
2.782991202
2.724340176
2.655913978
2.578690127
2.494623656
2.405669599
2.314760508
2.223851417
2.135874878
2.053763441
1.979472141
1.921798631
1.877810362
1.840664712
1.812316716
1.792766373
1.782991202
1.782013685
1.786901271
1.797653959
1.813294233
1.832844575
1.853372434
1.869990225
1.884652981
1.900293255
1.913978495
1.9257087
1.933528837
1.938416422
1.939393939
1.938416422
1.934506354
1.927663734
1.91886608
1.907135875
1.89540567
1.883675464
1.869012708
1.853372434
1.836754643
1.820136852
1.803519062
1.784946237
1.766373412
1.746823069
1.727272727
1.708699902
1.693059629
1.680351906
1.667644184
1.655913978
1.646138807
1.639296188
1.636363636
1.640273705
1.654936461
1.684261975
1.730205279
1.795698925
1.882697947
1.971652004
2.06744868
2.18572825
2.313782991
2.441837732
2.561094819
2.663734115
2.744868035
2.802541544
2.836754643
2.849462366
2.841642229
2.820136852
2.785923754
2.738025415
2.678396872
2.60801564
2.528836755
2.440860215
2.34799609
2.251221896
2.153470186
2.056695992
1.963831867
1.878787879
1.810361681
1.754643206
1.704789834
1.662756598
1.629521017
1.607038123
1.594330401
1.588465298
1.588465298
1.593352884
1.599217986
1.607038123
1.61485826
1.620723363
1.626588465
1.631476051
1.633431085
1.633431085
1.629521017
1.622678397
1.612903226
1.600195503
1.583577713
1.56402737
1.545454545
1.527859238
1.505376344
1.479960899
1.45259042
1.423264907
1.392961877
1.363636364
1.335288368
1.308895406
1.283479961
1.26001955
1.238514174
1.2228739
1.212121212
1.200391007
1.190615836
1.184750733
1.184750733
1.193548387
1.216031281
1.258064516
1.321603128
1.407624633
1.515151515
1.622678397
1.73313783
1.863147605
2
2.131964809
2.249266862
2.347018573
2.421309873
2.47311828
2.501466276
2.508308895
2.497556207
2.47311828
2.439882698
2.399804497
2.347018573
2.283479961
2.212121212
2.131964809
2.045943304
1.956989247
1.846529814
1.748778104
1.681329423
1.612903226
1.546432063
1.495601173
1.461388074
1.428152493
1.400782014
1.380254154
1.368523949
1.362658847
1.362658847
1.367546432
1.373411535
1.381231672
1.389051808
1.397849462
1.407624633
1.41544477
1.421309873
1.424242424
1.424242424
1.42228739
1.416422287
1.406647116
1.394916911
1.381231672
1.365591398
1.352883675
1.342130987
1.327468231
1.311827957
1.294232649
1.274682307
1.255131965
1.235581623
1.216031281
1.196480938
1.177908113
1.16226784
1.150537634
1.145650049
1.144672532
1.143695015
1.143695015
1.1485826
1.161290323
1.18572825
1.226783969
1.288367546
1.373411535
1.463343109
1.57086999
1.692082111
1.820136852
1.971652004
2.127077224
2.272727273
2.399804497
2.50342131
2.581622678
2.634408602
2.661779081
2.668621701
2.655913978
2.624633431
2.58455523
2.536656891
2.476050831
2.405669599
2.326490714
2.240469208
2.146627566
2.047898338
1.947214076
1.826979472
1.722385142
1.65200391
1.592375367
1.543499511
1.49657869
1.455522972
1.424242424
1.402737048
1.391006843
1.386119257
1.388074291
1.395894428
1.405669599
1.416422287
1.426197458
1.436950147
1.445747801
1.450635386
1.454545455
1.458455523
1.460410557
1.45943304
1.455522972
1.449657869
1.439882698
1.428152493
1.41544477
1.403714565
1.392961877
1.37829912
1.360703812
1.33431085
1.308895406
1.289345064
1.26686217
1.244379277
1.221896383
1.201368524
1.181818182
1.165200391
1.15542522
1.151515152
1.1485826
1.149560117
1.156402737
1.170087977
1.195503421
1.259042033
1.330400782
1.395894428
1.493646139
1.639296188
1.773216031
1.883675464
2.026392962
2.216031281
2.38514174
2.498533724
2.606060606
2.694037146
2.758553275
2.798631476
2.816226784
2.80058651
2.772238514
2.746823069
2.705767351
2.650048876
2.583577713
2.507331378
2.395894428
2.26686217
2.177908113
2.109481916
2.009775171
1.900293255
1.820136852
1.759530792
1.707722385
1.666666667
1.640273705
1.624633431
1.61485826
1.613880743
1.618768328
1.6285435
1.643206256
1.655913978
1.670576735
1.690127077
1.706744868
1.721407625
1.735092864
1.746823069
1.754643206
1.758553275
1.758553275
1.754643206
1.746823069
1.737047898
1.725317693
1.713587488
1.7028348
1.688172043
1.670576735
1.651026393
1.631476051
1.611925709
1.592375367
1.574780059
1.558162268
1.542521994
1.528836755
1.520039101
1.516129032
1.512218964
1.51026393
1.512218964
1.516129032
1.522971652
1.53372434
1.553274682
1.583577713
1.6285435
1.693059629
1.779081134
1.869012708
1.966764418
2.091886608
2.232649071
2.377321603
2.515151515
2.639296188
2.743890518
2.825024438
2.880742913
2.911045943
2.915933529
2.900293255
2.869012708
2.82111437
2.758553275
2.685239492
2.602150538
2.51026393
2.411534702
2.308895406
2.202346041
2.096774194
1.996089932
1.902248289
1.826001955
1.762463343
1.7028348
1.651026393
1.60801564
1.575757576
1.553274682
1.538611926
1.531769306
1.530791789
1.53372434
1.539589443
1.545454545
1.551319648
1.558162268
1.563049853
1.56402737
1.561094819
1.554252199
1.543499511
1.529814272
1.513196481
1.492668622
1.469208211
1.442815249
1.419354839
1.397849462
1.370478983
1.339198436
1.305962854
1.272727273
1.240469208
1.210166178
1.180840665
1.151515152
1.123167155
1.097751711
1.079178886
1.065493646
1.05083089
1.038123167
1.029325513
1.025415445
1.028347996
1.042033236
1.072336266
1.121212121
1.193548387
1.291300098
1.412512219
1.532746823
1.652981427
1.791788856
1.934506354
2.070381232
2.190615836
2.288367546
2.360703812
2.408602151
2.432062561
2.434017595
2.414467253
2.384164223
2.343108504
2.289345064
2.2228739
2.144672532
2.056695992
1.961876833
1.863147605
1.762463343
1.662756598
1.565004888
1.474095797
1.39198436
1.327468231
1.279569892
1.23655914
1.201368524
1.172043011
1.150537634
1.139784946
1.137829912
1.142717498
1.151515152
1.16226784
1.174975562
1.189638319
1.203323558
1.216031281
1.226783969
1.235581623
1.240469208
1.242424242
1.240469208
1.233626588
1.2228739
1.211143695
1.197458456
1.180840665
1.167155425
1.153470186
1.134897361
1.114369501
1.091886608
1.066471163
1.042033236
1.019550342
0.999022483
0.978494624
0.959921799
0.944281525
0.935483871
0.931573803
0.928641251
0.927663734
0.930596285
0.940371457
0.961876833
1.000977517
1.060606061
1.145650049
1.258064516
1.396871945
1.558162268
1.709677419
1.855327468
2.015640274
2.173020528
2.316715543
2.437927664
2.53372434
2.603128055
2.646138807
2.663734115
2.659824047
2.636363636
2.602150538
2.559139785
2.504398827
2.439882698
2.363636364
2.279569892
2.188660802
2.094819159
1.998044966
1.902248289
1.811339198
1.727272727
1.65200391
1.593352884
1.548387097
1.509286413
1.479960899
1.460410557
1.450635386
1.450635386
1.456500489
1.469208211
1.485826002
1.50342131
1.518084066
1.531769306
1.544477028
1.556207234
1.565982405
1.573802542
1.578690127
1.580645161
1.579667644
1.575757576
1.568914956
1.559139785
1.546432063
1.53372434
1.522971652
1.507331378
1.488758553
1.467253177
1.446725318
1.426197458
1.406647116
1.386119257
1.364613881
1.345063539
1.328445748
1.313782991
1.305962854
1.30400782
1.303030303
1.305962854
1.313782991
1.326490714
1.347018573
1.379276637
1.425219941
1.491691105
1.580645161
1.695014663
1.810361681
1.93255132
2.082111437
2.244379277
2.405669599
2.556207234
2.68914956
2.799608993
2.882697947
2.937438905
2.965786901
2.971652004
2.955034213
2.923753666
2.88172043
2.826979472
2.760508309
2.68230694
2.594330401
2.498533724
2.397849462
2.294232649
2.191593353
2.093841642
2.003910068
1.930596285
1.871945259
1.819159335
1.776148583
1.745845552
1.728250244
1.722385142
1.72629521
1.738025415
1.757575758
1.782013685
1.809384164
1.834799609
1.856304985
1.87487781
1.89540567
1.913000978
1.926686217
1.936461388
1.941348974
1.941348974
1.936461388
1.928641251
1.917888563
1.902248289
1.885630499
1.867057674
1.843597263
1.819159335
1.793743891
1.767350929
1.742913001
1.718475073
1.692082111
1.664711632
1.636363636
1.608993157
1.582600196
1.561094819
1.544477028
1.529814272
1.519061584
1.514173998
1.515151515
1.521994135
1.538611926
1.567937439
1.61485826
1.685239492
1.778103617
1.873900293
1.977517107
2.107526882
2.251221896
2.396871945
2.53372434
2.653958944
2.749755621
2.819159335
2.862170088
2.879765396
2.872922776
2.843597263
2.802541544
2.749755621
2.681329423
2.602150538
2.514173998
2.418377322
2.314760508
2.205278592
2.094819159
1.986314761
1.882697947
1.787878788
1.712609971
1.65200391
1.596285435
1.550342131
1.514173998
1.488758553
1.472140762
1.464320626
1.463343109
1.468230694
1.476050831
1.484848485
1.493646139
1.50342131
1.512218964
1.519061584
1.521994135
1.521016618
1.517106549
1.508308895
1.494623656
1.477028348
1.456500489
1.433040078
1.407624633
1.386119257
1.364613881
1.338220919
1.308895406
1.276637341
1.24340176
1.210166178
1.176930596
1.144672532
1.114369501
1.085043988
1.077223851
1.08113392
1.079178886
1.076246334
1.069403715
1.062561095
1.060606061
1.068426197
1.089931574
1.129032258
1.190615836
1.279569892
1.393939394
1.529814272
1.659824047
1.786901271
1.928641251
2.069403715
2.196480938
2.302052786
2.384164223
2.440860215
2.47311828
2.481915934
2.471163245
2.443792766
2.401759531
2.355816227
2.303030303
2.237536657
2.161290323
2.075268817
1.981427175
1.883675464
1.783968719
1.686217009
1.594330401
1.511241447
1.438905181
1.384164223
1.344086022
1.308895406
1.282502444
1.264907136
1.254154448
1.250244379
1.251221896
1.257086999
1.265884653
1.276637341
1.287390029
1.298142717
1.308895406
1.319648094
1.328445748
1.335288368
1.340175953
1.34115347
1.339198436
1.333333333
1.323558162
1.31085044
1.2971652
1.281524927
1.268817204
1.258064516
1.241446725
1.219941349
1.197458456
1.174975562
1.150537634
1.126099707
1.102639296
1.08113392
1.062561095
1.047898338
1.041055718
1.039100684
1.038123167
1.041055718
1.048875855
1.065493646
1.094819159
1.142717498
1.213098729
1.308895406
1.432062561
1.578690127
1.740957967
1.889540567
2.028347996
2.17888563
2.323558162
2.449657869
2.551319648
2.625610948
2.674486804
2.700879765
2.705767351
2.693059629
2.66568915
2.629521017
2.586510264
2.531769306
2.46627566
2.39198436
2.308895406
2.219941349
2.127077224
2.035190616
1.946236559
1.864125122
1.791788856
1.730205279
1.684261975
1.650048876
1.62170088
1.601173021
1.589442815
1.585532747
1.587487781
1.593352884
1.604105572
1.617790811
1.633431085
1.650048876
1.664711632
1.675464321
1.685239492
1.695014663
1.7028348
1.708699902
1.712609971
1.713587488
1.710654936
1.703812317
1.694037146
1.680351906
1.663734115
1.649071359
1.635386119
1.618768328
1.602150538
1.585532747
1.567937439
1.551319648
1.535679374
1.520039101
1.504398827
1.488758553
1.476050831
1.469208211
1.465298143
1.463343109
1.463343109
1.468230694
1.478983382
1.497556207
1.527859238
1.574780059
1.643206256
1.734115347
1.846529814
1.977517107
2.100684262
2.219941349
2.355816227
2.492668622
2.618768328
2.727272727
2.81427175
2.875855327
2.91202346
2.924731183
2.916911046
2.892473118
2.856304985
2.810361681
2.752688172
2.684261975
2.606060606
2.520039101
2.430107527
2.340175953
2.250244379
2.165200391
2.086999022
2.016617791
1.955034213
1.907135875
1.871945259
1.843597263
1.823069404
1.810361681
1.805474096
1.806451613
1.812316716
1.822091887
1.832844575
1.84457478
1.856304985
1.865102639
1.870967742
1.873900293
1.872922776
1.869990225
1.864125122
1.855327468
1.843597263
1.827956989
1.810361681
1.790811339
1.77028348
1.746823069
1.725317693
1.704789834
1.68230694
1.656891496
1.629521017
1.602150538
1.576735093
1.552297165
1.527859238
1.505376344
1.484848485
1.46627566
1.454545455
1.444770283
1.43597263
1.42913001
1.425219941
1.42913001
1.444770283
1.477028348
1.528836755
1.603128055
1.700879765
1.819159335
1.953079179
2.075268817
2.187683284
2.307917889
2.421309873
2.519061584
2.596285435
2.650048876
2.680351906
2.688172043
2.675464321
2.64516129
2.600195503
2.549364614
2.491691105
2.420332356
2.339198436
2.249266862
2.156402737
2.060606061
1.961876833
1.865102639
1.774193548
1.690127077
1.61485826
1.551319648
1.506353861
1.475073314
1.448680352
1.430107527
1.419354839
1.41544477
1.416422287
1.421309873
1.42913001
1.439882698
1.449657869
1.458455523
1.46627566
1.471163245
1.47311828
1.472140762
1.469208211
