1.45845552297165	1.45063538611926	1.44672531769306	1.44965786901271	1.46041055718475	1.47800586510264	1.50733137829912	1.55620723362659	1.62658846529814	1.71749755620723	1.82795698924731	1.95210166177908	2.08308895405670	2.21309872922776	2.33528836754643	2.44183773216031	2.52785923753666	2.58553274682307	2.61974584555230	2.64027370478983	2.64320625610948	2.62658846529814	2.59530791788856	2.55229716520039	2.49755620723363	2.43206256109482	2.35777126099707	2.27761485826002	2.19354838709677	2.10654936461388	2.02834799608993	1.95601173020528	1.87781036168133	1.79960899315738	1.72629521016618	1.65982404692082	1.60117302052786	1.55327468230694	1.51417399804497	1.48582600195503	1.46725317693060	1.45552297165200	1.45063538611926	1.44965786901271	1.45161290322581	1.45454545454545	1.45747800586510	1.46041055718475	1.46041055718475	1.46041055718475	1.45943304007820	1.45650048875855	1.45259042033236	1.44672531769306	1.44086021505376	1.43695014662757	1.43401759530792	1.42717497556207	1.41642228739003	1.40078201368524	1.38318670576735	1.36168132942326	1.33724340175953	1.30987292277615	1.28152492668622	1.25317693059629	1.22580645161290	1.20332355816227	1.18670576735093	1.16715542521994	1.14565004887586	1.12512218963832	1.10459433040078	1.08602150537634	1.07038123167155	1.05767350928641	1.05083088954057	1.05278592375367	1.06647116324536	1.09677419354839	1.13880742913001	1.19745845552297	1.28445747800587	1.39687194525904	1.52883675464321	1.67350928641251	1.82111436950147	1.96383186705767	2.09384164222874	2.20723362658847	2.29814271749756	2.39393939393939	2.47898338220919	2.52101661779081	2.53958944281525	2.53665689149560	2.51515151515152	2.47702834799609	2.42424242424242	2.35972629521017	2.28543499511241	2.20332355816227	2.11436950146628	2.02052785923754	1.93743890518084	1.86021505376344	1.77614858260020	1.69305962854350	1.61583577712610	1.54643206256109	1.48582600195503	1.43499511241447	1.39589442815249	1.36754643206256	1.34897360703812	1.33919843597263	1.33822091886608	1.34408602150538	1.35386119257087	1.36656891495601	1.38025415444770	1.39296187683284	1.40371456500489	1.41153470185728	1.41935483870968	1.42619745845552	1.43108504398827	1.43401759530792	1.43401759530792	1.43401759530792	1.43304007820137	1.42619745845552	1.41642228739003	1.40469208211144	1.39002932551320	1.37243401759531	1.35190615835777	1.33137829912023	1.31085043988270	1.28836754643206	1.26392961876833	1.23851417399805	1.21896383186706	1.20234604105572	1.18279569892473	1.16226783968719	1.14076246334311	1.12218963831867	1.10850439882698	1.10068426197458	1.09970674486804	1.10850439882698	1.13196480938416	1.17595307917889	1.23167155425220	1.30596285434995	1.41348973607038	1.54936461388074	1.70772238514174	1.87878787878788	2.05474095796676	2.22580645161290	2.38318670576735	2.51808406647116	2.62658846529814	2.70772238514174	2.76050830889541	2.78592375366569	2.78983382209189	2.78103616813294	2.75757575757576	2.72043010752688	2.67253176930596	2.61290322580645	2.54154447702835	2.46138807429130	2.37438905180841	2.28347996089932	2.19159335288368	2.11143695014663	2.03812316715543	1.96187683284457	1.89051808406647	1.82600195503421	1.77126099706745	1.72727272727273	1.69208211143695	1.66568914956012	1.64809384164223	1.63734115347019	1.63343108504399	1.63538611925709	1.63929618768328	1.64418377321603	1.65102639296188	1.65786901270772	1.66471163245357	1.67253176930596	1.68132942326491	1.68914956011730	1.69599217986315	1.69892473118280	1.69990224828935	1.69892473118280	1.69696969696970	1.69208211143695	1.68328445747801	1.67253176930596	1.66080156402737	1.64809384164223	1.63343108504399	1.61779081133920	1.60215053763441	1.58651026392962	1.56989247311828	1.55034213098729	1.53079178885631	1.51612903225806	1.50537634408602	1.49364613880743	1.48191593352884	1.47311827956989	1.46823069403715	1.46725317693060	1.47018572825024	1.47800586510264	1.49364613880743	1.52101661779081	1.56695992179863	1.62072336265885	1.69012707722385	1.79081133919844	1.91984359726295	2.07135874877810	2.23753665689150	2.40860215053763	2.57478005865103	2.72727272727273	2.85923753665689	2.96480938416422	3.04203323558162	3.09188660801564	3.11339198435973	3.11339198435973	3.09775171065494	3.06647116324536	3.02150537634409	2.96578690127077	2.90127077223851	2.82697947214076	2.74291300097752	2.65200391006843	2.55718475073314	2.46236559139785	2.37829912023460	2.30303030303030	2.22580645161290	2.15151515151515	2.08406647116325	2.02639296187683	1.97751710654936	1.93939393939394	1.91300097751711	1.89638318670577	1.88856304985337	1.88856304985337	1.89345063538612	1.90029325513197	1.90909090909091	1.92179863147605	1.93646138807429	1.95112414467253	1.96383186705767	1.97458455522972	1.98338220918866	1.98924731182796	1.99217986314761	1.99120234604106	1.98729227761486	1.98142717497556	1.97262952101662	1.95992179863148	1.94428152492669	1.92473118279570	1.90322580645161	1.87878787878788	1.85337243401760	1.82600195503421	1.79863147605083	1.77028347996090	1.74193548387097	1.71554252199414	1.69403714565005	1.67644183773216	1.65786901270772	1.63929618768328	1.62170087976540	1.60703812316716	1.59530791788856	1.58651026392962	1.58260019550342	1.58748778103617	1.60410557184751	1.63734115347019	1.68035190615836	1.73900293255132	1.82697947214076	1.94232649071359	2.07820136852395	2.22678396871945	2.37927663734115	2.52688172043011	2.66080156402737	2.77419354838710	2.86119257086999	2.92277614858260	2.95503421309873	2.96285434995112	2.95307917888563	2.92473118279570	2.87976539589443	2.82111436950147	2.75073313782991	2.66959921798631	2.57966764418377	2.48387096774194	2.38318670576735	2.27956989247312	2.17399804496579	2.08113391984360	1.99706744868035	1.91006842619746	1.82697947214076	1.74975562072336	1.68132942326491	1.62463343108504	1.57869012707722	1.54349951124145	1.51710654936461	1.49951124144673	1.48778103616813	1.48289345063539	1.48387096774194	1.48778103616813	1.49266862170088	1.49853372434018	1.50342130987292	1.48191593352884	1.44574780058651	1.42619745845552	1.41251221896383	1.40175953079179	1.39100684261975	1.37927663734115	1.36852394916911	1.35679374389052	1.33919843597263	1.31769305962854	1.29325513196481	1.26686217008798	1.24046920821114	1.21505376344086	1.18768328445748	1.15835777126100	1.12903225806452	1.09970674486804	1.07722385141740	1.05865102639296	1.03616813294233	1.01466275659824	0.995112414467253	0.976539589442815	0.959921798631476	0.948191593352884	0.943304007820137	0.951124144672532	0.976539589442815	1.02346041055718	1.09481915933529	1.17888563049853	1.27859237536657	1.40957966764418	1.56109481915934	1.72434017595308	1.88954056695992	2.04594330400782	2.18670576735093	2.30498533724340	2.39687194525904	2.46236559139785	2.50146627565982	2.51710654936461	2.51319648093842	2.49364613880743	2.45845552297165	2.41055718475073	2.35386119257087	2.28836754643206	2.21212121212121	2.12707722385142	2.03714565004888	1.94330400782014	1.84848484848485	1.75464320625611	1.67546432062561	1.60606060606061	1.53372434017595	1.46529814271750	1.40469208211144	1.35483870967742	1.31573802541544	1.28641251221896	1.26783968719453	1.25708699902248	1.25513196480938	1.25904203323558	1.26686217008798	1.27761485826002	1.28836754643206	1.29912023460411	1.30889540566960	1.31671554252199	1.32355816226784	1.32942326490714	1.33333333333333	1.33333333333333	1.32942326490714	1.32160312805474	1.31085043988270	1.30205278592375	1.29325513196481	1.28152492668622	1.26783968719453	1.25122189638319	1.23264907135875	1.21407624633431	1.19354838709677	1.17106549364614	1.14662756598240	1.12121212121212	1.09579667644184	1.07820136852395	1.06353861192571	1.04692082111437	1.03128054740958	1.01857282502444	1.00879765395894	1.00293255131965	1.00293255131965	1.01270772238514	1.03714565004888	1.08211143695015	1.15249266862170	1.24926686217009	1.35386119257087	1.47018572825024	1.61779081133920	1.78396871945259	1.95601173020528	2.12316715542522	2.27663734115347	2.40762463343109	2.51221896383187	2.59042033235582	2.64222873900293	2.66862170087977	2.67350928641251	2.66177908113392	2.63636363636364	2.60117302052786	2.55718475073314	2.50244379276637	2.43890518084066	2.36559139784946	2.28641251221896	2.20136852394917	2.11436950146628	2.02639296187683	1.93939393939394	1.86510263929619	1.80254154447703	1.74095796676442	1.68426197458456	1.63538611925709	1.59726295210166	1.56891495601173	1.55131964809384	1.54252199413490	1.54154447702835	1.54740957966764	1.55816226783969	1.57184750733138	1.58553274682307	1.60019550342131	1.61388074291300	1.62561094819159	1.63636363636364	1.64613880742913	1.65395894428153	1.65982404692082	1.66373411534702	1.66666666666667	1.66764418377322	1.66666666666667	1.66568914956012	1.66373411534702	1.66080156402737	1.65493646138807	1.64711632453568	1.63831867057674	1.62658846529814	1.61388074291300	1.60117302052786	1.58651026392962	1.57184750733138	1.55816226783969	1.54740957966764	1.53861192570870	1.53079178885631	1.52492668621701	1.52297165200391	1.52394916911046	1.52883675464321	1.53861192570870	1.55816226783969	1.58944281524927	1.63831867057674	1.70869990224829	1.80449657869013	1.90420332355816	2.01270772238514	2.15151515151515	2.30791788856305	2.47018572825024	2.62756598240469	2.77223851417400	2.89638318670577	2.99706744868035	3.07331378299120	3.12414467253177	3.15151515151515	3.15542521994135	3.14076246334311	3.11241446725318	3.07233626588465	3.02150537634409	2.95992179863148	2.88758553274682	2.80645161290323	2.71945259042033	2.62756598240469	2.53274682306940	2.43792766373412	2.35483870967742	2.28152492668622	2.20723362658847	2.13685239491691	2.07429130009775	2.02150537634409	1.98044965786901	1.95014662756598	1.92864125122190	1.91495601173021	1.91006842619746	1.91006842619746	1.91495601173021	1.92179863147605	1.92864125122190	1.93841642228739	1.95014662756598	1.96187683284457	1.97360703812317	1.98240469208211	1.98729227761486	1.98924731182796	1.98729227761486	1.98338220918866	1.97653958944282	1.96774193548387	1.95698924731183	1.94134897360704	1.92277614858260	1.90127077223851	1.87683284457478	1.85043988269795	1.82306940371457	1.79472140762463	1.76441837732160	1.73509286412512	1.70674486803519	1.67839687194526	1.65395894428153	1.63245356793744	1.60997067448680	1.58944281524927	1.57086999022483	1.55425219941349	1.54154447702835	1.53372434017595	1.53274682306940	1.54252199413490	1.56598240469208	1.60899315738025	1.65689149560117	1.71358748778104	1.79863147605083	1.90811339198436	2.03421309872923	2.16813294232649	2.30009775171066	2.42424242424242	2.53372434017595	2.62365591397849	2.69110459433040	2.73607038123167	2.76148582600196	2.76539589442815	2.75073313782991	2.72336265884653	2.68426197458456	2.63440860215054	2.57380254154448	2.50439882697947	2.42717497556207	2.34310850439883	2.25513196480938	2.16520039100684	2.07526881720430	1.99706744868035	1.92766373411535	1.85532746823069	1.78787878787879	1.72825024437928	1.67741935483871	1.63636363636364	1.60410557184751	1.57966764418377	1.56304985337243	1.55229716520039	1.54643206256109	1.54349951124145	1.54349951124145	1.54643206256109	1.55034213098729	1.55425219941349	1.55718475073314	1.55816226783969	1.55913978494624	1.55816226783969	1.55620723362659	1.55131964809384	1.54252199413490	1.52981427174976	1.51808406647116	1.50635386119257	1.48973607038123	1.46920821114370	1.44770283479961	1.42521994134897	1.40175953079179	1.37634408602151	1.35092864125122	1.32649071358749	1.30303030303030	1.28152492668622	1.26099706744868	1.24731182795699	1.23558162267840	1.22287390029326	1.21114369501466	1.20039100684262	1.19159335288368	1.18768328445748	1.19159335288368	1.20625610948192	1.23655913978495	1.28641251221896	1.35679374389052	1.43499511241447	1.52394916911046	1.63734115347019	1.76832844574780	1.90615835777126	2.04203323558162	2.16911045943304	2.28054740957967	2.37145650048876	2.44086021505376	2.48680351906158	2.51221896383187	2.51808406647116	2.50733137829912	2.48387096774194	2.44868035190616	2.40175953079179	2.34604105571848	2.28250244379277	2.21212121212121	2.13587487781036	2.05571847507331	1.97360703812317	1.89149560117302	1.81133919843597	1.74584555229717	1.69208211143695	1.63929618768328	1.59139784946237	1.55131964809384	1.52003910068426	1.49657869012708	1.48093841642229	1.47018572825024	1.46529814271750	1.46529814271750	1.47018572825024	1.47898338220919	1.48875855327468	1.49755620723363	1.50439882697947	1.51124144672532	1.51710654936461	1.52199413489736	1.52297165200391	1.52199413489736	1.51808406647116	1.51319648093842	1.50635386119257	1.49853372434018	1.49169110459433	1.48484848484848	1.47409579667644	1.46041055718475	1.44281524926686	1.42326490713588	1.40175953079179	1.38025415444770	1.35874877810362	1.33724340175953	1.31671554252199	1.29618768328446	1.27761485826002	1.26490713587488	1.25610948191593	1.24731182795699	1.24046920821114	1.23753665689150	1.23753665689150	1.24437927663734	1.26099706744868	1.29423264907136	1.34701857282502	1.42228739002933	1.52199413489736	1.62267839687195	1.73118279569892	1.86608015640274	2.01173020527859	2.15738025415445	2.29325513196481	2.41251221896383	2.51026392961877	2.58455522971652	2.63538611925709	2.66471163245357	2.67448680351906	2.66568914956012	2.64516129032258	2.61388074291300	2.57086999022483	2.52003910068426	2.46041055718475	2.39393939393939	2.31964809384164	2.23851417399804	2.15444770283480	2.06842619745846	1.98338220918866	1.90224828934506	1.83577712609971	1.77908113391984	1.72531769305963	1.67741935483871	1.63734115347019	1.60801564027370	1.58846529814272	1.57771260997067	1.57478005865103	1.57673509286413	1.58260019550342	1.59042033235582	1.59824046920821	1.60606060606061	1.61388074291300	1.62267839687195	1.63049853372434	1.63734115347019	1.64222873900293	1.64613880742913	1.64711632453568	1.64613880742913	1.64222873900293	1.63636363636364	1.62854349951124	1.61974584555230	1.60997067448680	1.59726295210166	1.58260019550342	1.56500488758553	1.54545454545455	1.52492668621701	1.50537634408602	1.48582600195503	1.46627565982405	1.44672531769306	1.42717497556207	1.41251221896383	1.40175953079179	1.39100684261975	1.38220918866080	1.37732160312805	1.37634408602151	1.38025415444770	1.39198435972630	1.41153470185728	1.44281524926686	1.49169110459433	1.56109481915934	1.65298142717498	1.74780058651026	1.85043988269795	1.97947214076246	2.12218963831867	2.26686217008798	2.40371456500489	2.52688172043011	2.63147605083089	2.71260997067449	2.76832844574780	2.80254154447703	2.81622678396872	2.81133919843597	2.79276637341154	2.76246334310850	2.72043010752688	2.66862170087977	2.60899315738025	2.54056695992180	2.46529814271750	2.38416422287390	2.30009775171066	2.21603128054741	2.13391984359726	2.05571847507331	1.99022482893451	1.93450635386119	1.88074291300098	1.83284457478006	1.79276637341153	1.76246334310850	1.72336265884653	1.68230694037146	1.66177908113392	1.65395894428153	1.65591397849462	1.66373411534702	1.67253176930596	1.68230694037146	1.69305962854350	1.70283479960899	1.71260997067449	1.72140762463343	1.72629521016618	1.72825024437928	1.72629521016618	1.72140762463343	1.71260997067449	1.70185728250244	1.68914956011730	1.67546432062561	1.66080156402737	1.64320625610948	1.62267839687195	1.60117302052786	1.57869012707722	1.55522971652004	1.53176930596285	1.50830889540567	1.48387096774194	1.45845552297165	1.43401759530792	1.41446725317693	1.39882697947214	1.38318670576735	1.36950146627566	1.35972629521017	1.35386119257087	1.35190615835777	1.35679374389052	1.36852394916911	1.39002932551320	1.42717497556207	1.48484848484848	1.56695992179863	1.65395894428153	1.75366568914956	1.88563049853372	2.03812316715543	2.19941348973607	2.35874877810362	2.50733137829912	2.63831867057674	2.74486803519062	2.82404692082111	2.87585532746823	2.90127077223851	2.90127077223851	2.88172043010753	2.84652981427175	2.79667644183773	2.73411534701857	2.66177908113392	2.57869012707722	2.48680351906158	2.38807429130010	2.28445747800587	2.17888563049853	2.07429130009775	1.97458455522972	1.89051808406647	1.81915933528837	1.74877810361681	1.68523949169110	1.63245356793744	1.59237536656891	1.56207233626588	1.54056695992180	1.52688172043011	1.52101661779081	1.52003910068426	1.52394916911046	1.52981427174976	1.53763440860215	1.54545454545455	1.55229716520039	1.55718475073314	1.56109481915934	1.56304985337243	1.56207233626588	1.55718475073314	1.54740957966764	1.53470185728250	1.51808406647116	1.49853372434018	1.48093841642229	1.46334310850440	1.44086021505376	1.41642228739003	1.38905180840665	1.36070381231672	1.33137829912023	1.30205278592375	1.27370478983382	1.24535679374389	1.21700879765396	1.19061583577713	1.17106549364614	1.15738025415445	1.14173998044966	1.12707722385142	1.11534701857283	1.10557184750733	1.10166177908113	1.10752688172043	1.12707722385142	1.16520039100684	1.22776148582600	1.31671554252199	1.43206256109482	1.54838709677419	1.67155425219941	1.82111436950147	1.98142717497556	2.13978494623656	2.28641251221896	2.41348973607038	2.51515151515152	2.58748778103617	2.63147605083089	2.64907135874878	2.64222873900293	2.61876832844575	2.58162267839687	2.52981427174976	2.46432062561095	2.38905180840665	2.30498533724340	2.21505376344086	2.11925708699902	2.01955034213099	1.91984359726295	1.82013685239492	1.72531769305963	1.64613880742913	1.57869012707722	1.51124144672532	1.44965786901271	1.39784946236559	1.35581622678397	1.32355816226784	1.30205278592375	1.28934506353861	1.28347996089932	1.28347996089932	1.28739002932551	1.29521016617791	1.30400782013685	1.31280547409580	1.32160312805474	1.32844574780059	1.33333333333333	1.33724340175953	1.33822091886608	1.33528836754643	1.32844574780059	1.31671554252199	1.30303030303030	1.28641251221896	1.27272727272727	1.25904203323558	1.24046920821114	1.21798631476051	1.19452590420332	1.17008797653959	1.14271749755621	1.11436950146628	1.08602150537634	1.05865102639296	1.03128054740958	1.00488758553275	0.981427174975562	0.965786901270772	0.955034213098729	0.943304007820137	0.933528836754643	0.928641251221896	0.930596285434995	0.942326490713588	0.968719452590420	1.01368523949169	1.08308895405670	1.17986314760508	1.30498533724340	1.43206256109482	1.56695992179863	1.73118279569892	1.90713587487781	2.08113391984360	2.24242424242424	2.38318670576735	2.49755620723363	2.58260019550342	2.64027370478983	2.67155425219941	2.67937438905181	2.66666666666667	2.63929618768328	2.60117302052786	2.54838709677419	2.48289345063539	2.40664711632454	2.32258064516129	2.23264907135875	2.13685239491691	2.03714565004888	1.93743890518084	1.84066471163245	1.74780058651026	1.67253176930596	1.60997067448680	1.54936461388074	1.49657869012708	1.45356793743891	1.42130987292278	1.39980449657869	1.38709677419355	1.38220918866080	1.38318670576735	1.38709677419355	1.39296187683284	1.39882697947214	1.40566959921799	1.41153470185728	1.41837732160313	1.42424242424242	1.42815249266862	1.43010752688172	1.43010752688172	1.42717497556207	1.42130987292278	1.41153470185728	1.39882697947214	1.38416422287390	1.37145650048876	1.36070381231672	1.34604105571848	1.32942326490714	1.31085043988270	1.29032258064516	1.26881720430108	1.24437927663734	1.21798631476051	1.19354838709677	1.17204301075269	1.15249266862170	1.13489736070381	1.14369501466276	1.16520039100684	1.17204301075269	1.17595307917889	1.17986314760508	1.18768328445748	1.20430107526882	1.23362658846530	1.27761485826002	1.34213098729228	1.43206256109482	1.55034213098729	1.67057673509286	1.79667644183773	1.95112414467253	2.12023460410557	2.29032258064516	2.44965786901271	2.59237536656892	2.71358748778104	2.80645161290323	2.87194525904203	2.91104594330401	2.92473118279570	2.91691104594330	2.89247311827957	2.85532746823069	2.80449657869013	2.74193548387097	2.67057673509286	2.59042033235582	2.50244379276637	2.40860215053763	2.31182795698925	2.21505376344086	2.12023460410557	2.02932551319648	1.95307917888563	1.88954056695992	1.82795698924731	1.77419354838710	1.73020527859238	1.69696969696970	1.67448680351906	1.66177908113392	1.65591397849462	1.65591397849462	1.66080156402737	1.66959921798631	1.68035190615836	1.69110459433040	1.70283479960899	1.71554252199414	1.72629521016618	1.73509286412512	1.74193548387097	1.74682306940371	1.74877810361681	1.74877810361681	1.74486803519062	1.73900293255132	1.73020527859238	1.71945259042033	1.70674486803519	1.69012707722385	1.67057673509286	1.64711632453568	1.62072336265885	1.59433040078201	1.56793743890518	1.54252199413490	1.52003910068426	1.49853372434018	1.47800586510264	1.45943304007820	1.44574780058651	1.43401759530792	1.42130987292278	1.41055718475073	1.40371456500489	1.40175953079179	1.40566959921799	1.41739980449658	1.44086021505376	1.48093841642229	1.54154447702835	1.62658846529814	1.71652003910068	1.81915933528837	1.95210166177908	2.10654936461388	2.27077223851417	2.43401759530792	2.58846529814272	2.72531769305963	2.83577712609971	2.91788856304985	2.97165200391007	2.99902248289345	3.00195503421310	2.98533724340176	2.95307917888563	2.90615835777126	2.84555229716520	2.77321603128055	2.69012707722385	2.59824046920821	2.49853372434018	2.39296187683284	2.28543499511241	2.18084066471163	2.08113391984360	1.99804496578690	1.92668621700880	1.85826001955034	1.79765395894428	1.74486803519062	1.70478983382209	1.67644183773216	1.65786901270772	1.64809384164223	1.64613880742913	1.65004887585533	1.65689149560117	1.66568914956012	1.67546432062561	1.68621700879765	1.69696969696970	1.70576735092864	1.71260997067449	1.71652003910068	1.71749755620723	1.71456500488759	1.70772238514174	1.69696969696970	1.68328445747801	1.66862170087977	1.65395894428153	1.63831867057674	1.61681329423265	1.59237536656891	1.56598240469208	1.53665689149560	1.50537634408602	1.47507331378299	1.44477028347996	1.41446725317693	1.38514173998045	1.35679374389052	1.33431085043988	1.31476050830890	1.29227761485826	1.27077223851417	1.25219941348974	1.23655913978495	1.22580645161290	1.22287390029326	1.23069403714565	1.25317693059629	1.29423264907136	1.35777126099707	1.44965786901271	1.54838709677419	1.65786901270772	1.80058651026393	1.96187683284457	2.12903225806452	2.29032258064516	2.43695014662757	2.56109481915934	2.65982404692082	2.73118279569892	2.77419354838710	2.79178885630499	2.78690127077224	2.76344086021505	2.72434017595308	2.67253176930596	2.60801564027370	2.53079178885631	2.44379276637341	2.34995112414467	2.24731182795699	2.14076246334311	2.03421309872923	1.92864125122190	1.82697947214076	1.74291300097752	1.67253176930596	1.60215053763441	1.53958944281525	1.48778103616813	1.44770283479961	1.41739980449658	1.39589442815249	1.38220918866080	1.37438905180841	1.37145650048876	1.37145650048876	1.37341153470186	1.37927663734115	1.38709677419355	1.39491691104594	1.40175953079179	1.40664711632454	1.41055718475073	1.41251221896383	1.41055718475073	1.40566959921799	1.39687194525904	1.38318670576735	1.36656891495601	1.35190615835777	1.33724340175953	1.31671554252199	1.29227761485826	1.26588465298143	1.23753665689150	1.20821114369501	1.17986314760508	1.15249266862170	1.12512218963832	1.09872922776149	1.07526881720430	1.05962854349951	1.04692082111437	1.03225806451613	1.01759530791789	1.00488758553275	0.997067448680352	0.997067448680352	1.00684261974585	1.03225806451613	1.07820136852395	1.14858260019550	1.24828934506354	1.37634408602151	1.50635386119257	1.64125122189638	1.80449657869013	1.97849462365591	2.14858260019550	2.30400782013685	2.43792766373412	2.54740957966764	2.62952101661779	2.68426197458456	2.71260997067449	2.71749755620723	2.70381231671554	2.67448680351906	2.63049853372434	2.57478005865103	2.50928641251222	2.43304007820137	2.34701857282502	2.25024437927664	2.14662756598240	2.04203323558162	1.93939393939394	1.84164222873900	1.74975562072336	1.67546432062561	1.61388074291300	1.55522971652004	1.50439882697947	1.46334310850440	1.43304007820137	1.41251221896383	1.40078201368524	1.39589442815249	1.39687194525904	1.40175953079179	1.40957966764418	1.41837732160313	1.42717497556207	1.43499511241447	1.44281524926686	1.44965786901271	1.45454545454545	1.45845552297165	1.45943304007820	1.45747800586510	1.45356793743891	1.44574780058651	1.43499511241447	1.42130987292278	1.40957966764418	1.39687194525904	1.38025415444770	1.36070381231672	1.33822091886608	1.31378299120235	1.28934506353861	1.26588465298143	1.24242424242424	1.21798631476051	1.19354838709677	1.17106549364614	1.15542521994135	1.14271749755621	1.13000977517107	1.11925708699902	1.11241446725318	1.10948191593353	1.11339198435973	1.12707722385142	1.15347018572825	1.19745845552297	1.26197458455523	1.35288367546432	1.47116324535679	1.59139784946237	1.72140762463343	1.88074291300098	2.05376344086022	2.22776148582600	2.39100684261975	2.53470185728250	2.65200391006843	2.74193548387097	2.80449657869013	2.84066471163245	2.85239491691105	2.84359726295210	2.81915933528837	2.78299120234604	2.73411534701857	2.67448680351906	2.60312805474096	2.52101661779081	2.42913000977517	2.33235581622678	2.23264907135875	2.13196480938416	2.03519061583578	1.94330400782014	1.86803519061584	1.80547409579668	1.74682306940371	1.69696969696970	1.65689149560117	1.62658846529814	1.60606060606061	1.59335288367546	1.58748778103617	1.58651026392962	1.58944281524927	1.59530791788856	1.60215053763441	1.60997067448680	1.61876832844575	1.62756598240469	1.63538611925709	1.64222873900293	1.64907135874878	1.65591397849462	1.66080156402737	1.66275659824047	1.66373411534702	1.66373411534702	1.66177908113392	1.65786901270772	1.65004887585533	1.63831867057674	1.62365591397849	1.60606060606061	1.58651026392962	1.56695992179863	1.54740957966764	1.52785923753666	1.51026392961877	1.49266862170088	1.47800586510264	1.46823069403715	1.46041055718475	1.45161290322581	1.44281524926686	1.43597262952102	1.43206256109482	1.43108504398827	1.43401759530792	1.44281524926686	1.46138807429130	1.49462365591398	1.54740957966764	1.60997067448680	1.68914956011730	1.80156402737048	1.93939393939394	2.09775171065494	2.26588465298143	2.43304007820137	2.58944281524927	2.72825024437928	2.84261974584555	2.92961876832845	2.98729227761486	3.01955034213099	3.02737047898338	3.01368523949169	2.98338220918866	2.93841642228739	2.87878787878788	2.80742913000978	2.72434017595308	2.63245356793744	2.53274682306940	2.43010752688172	2.32746823069404	2.22482893450635	2.13587487781036	2.05767350928641	1.97947214076246	1.90713587487781	1.84457478005865	1.79178885630499	1.74975562072336	1.71749755620723	1.69501466275660	1.68035190615836	1.67350928641251	1.67350928641251	1.67839687194526	1.68621700879765	1.69501466275660	1.70576735092864	1.71749755620723	1.72727272727273	1.73411534701857	1.73900293255132	1.73998044965787	1.73704789833822	1.73020527859238	1.72043010752688	1.70869990224829	1.69696969696970	1.68523949169110	1.67155425219941	1.65493646138807	1.63440860215054	1.61094819159335	1.58553274682307	1.55913978494624	1.52981427174976	1.49755620723363	1.46334310850440	1.42815249266862	1.39296187683284	1.36363636363636	1.33724340175953	1.30694037145650	1.27663734115347	1.24926686217009	1.22482893450635	1.20234604105572	1.18572825024438	1.17693059628544	1.18084066471163	1.20136852394917	1.24437927663734	1.29912023460411	1.37145650048876	1.47507331378299	1.60410557184751	1.75366568914956	1.91495601173021	2.07820136852395	2.23558162267840	2.37634408602151	2.49560117302053	2.58748778103617	2.65004887585533	2.68426197458456	2.69305962854350	2.68230694037146	2.65591397849462	2.61388074291300	2.55913978494624	2.49169110459433	2.41348973607038	2.32551319648094	2.23167155425220	2.13294232649071	2.03030303030303	1.92766373411535	1.83773216031281	1.75953079178886	1.68035190615836	1.60410557184751	1.53567937438905	1.47898338220919	1.43206256109482	1.39687194525904	1.37243401759531	1.35777126099707	1.35190615835777	1.35190615835777	1.35679374389052	1.36265884652981	1.36950146627566	1.37634408602151	1.38318670576735	1.38807429130010	1.39296187683284	1.39491691104594	1.39393939393939	1.39100684261975	1.38416422287390	1.37536656891496	1.36363636363636	1.35483870967742	1.32062561094819	1.26881720430108	1.23264907135875	1.20332355816227	1.17595307917889	1.15053763440860	1.12512218963832	1.09970674486804	1.07429130009775	1.04887585532747	1.02346041055718	0.998044965786901	0.979472140762463	0.965786901270772	0.950146627565982	0.934506353861193	0.920821114369501	0.911045943304008	0.907135874877810	0.912023460410557	0.927663734115347	0.960899315738026	1.01857282502444	1.10459433040078	1.20234604105572	1.31573802541544	1.46236559139785	1.63147605083089	1.81231671554252	1.99315738025415	2.16324535679374	2.31280547409580	2.43695014662757	2.53176930596285	2.59628543499511	2.63245356793744	2.64320625610948	2.63343108504399	2.60801564027370	2.56793743890518	2.51417399804497	2.44868035190616	2.37243401759531	2.28641251221896	2.19159335288368	2.09090909090909	1.98631476050831	1.88074291300098	1.77712609970674	1.68817204301075	1.61094819159335	1.53470185728250	1.46432062561095	1.40371456500489	1.35288367546432	1.31378299120235	1.28641251221896	1.26979472140762	1.26001955034213	1.25708699902248	1.26001955034213	1.26686217008798	1.27370478983382	1.27956989247312	1.28445747800587	1.28836754643206	1.29227761485826	1.29423264907136	1.29325513196481	1.29130009775171	1.28836754643206	1.28250244379277	1.27370478983382	1.26197458455523	1.25219941348974	1.24144672531769	1.22580645161290	1.20625610948192	1.18377321603128	1.16031280547410	1.13685239491691	1.11241446725318	1.08699902248289	1.06256109481916	1.04007820136852	1.01857282502444	1.00293255131965	0.990224828934506	0.975562072336266	0.962854349951124	0.954056695992180	0.949169110459433	0.949169110459433	0.955034213098729	0.968719452590420	0.991202346041056	1.02737047898338	1.08015640273705	1.15444770283480	1.23851417399805	1.33822091886608	1.47311827956989	1.63343108504399	1.81231671554252	1.99706744868035	2.17693059628544	2.34310850439883	2.48778103616813	2.60703812316716	2.69696969696970	2.75757575757576	2.78885630498534	2.79667644183773	2.78690127077224	2.75953079178886	2.71749755620723	2.66177908113392	2.59530791788856	2.51906158357771	2.43499511241447	2.34310850439883	2.24633431085044	2.14662756598240	2.04594330400782	1.95796676441838	1.88074291300098	1.80254154447703	1.72825024437928	1.66373411534702	1.60997067448680	1.56695992179863	1.53372434017595	1.50928641251222	1.49266862170088	1.48387096774194	1.48289345063539	1.48680351906158	1.49364613880743	1.50537634408602	1.51808406647116	1.53079178885631	1.54349951124145	1.55620723362659	1.56695992179863	1.57478005865103	1.57966764418377	1.58162267839687	1.57966764418377	1.57478005865103	1.56891495601173	1.56109481915934	1.54838709677419	1.53274682306940	1.51417399804497	1.49364613880743	1.47409579667644	1.45259042033236	1.42913000977517	1.40469208211144	1.38025415444770	1.35679374389052	1.33724340175953	1.32160312805474	1.30596285434995	1.28934506353861	1.27468230694037	1.26588465298143	1.26295210166178	1.26295210166178	1.26588465298143	1.27565982404692	1.29325513196481	1.32355816226784	1.37145650048876	1.42913000977517	1.50048875855327	1.60410557184751	1.73704789833822	1.89247311827957	2.06256109481916	2.23851417399804	2.41055718475073	2.56793743890518	2.70478983382209	2.81329423264907	2.89345063538612	2.93939393939394	2.95894428152493	2.96285434995112	2.94819159335288	2.91691104594330	2.86901270772239	2.80645161290323	2.73216031280547	2.64809384164223	2.55425219941349	2.45356793743891	2.34897360703812	2.24340175953079	2.14956011730205	2.06451612903226	1.97751710654936	1.89638318670577	1.82306940371457	1.76050830889541	1.70967741935484	1.66959921798631	1.64125122189638	1.62267839687195	1.61290322580645	1.61094819159335	1.61290322580645	1.61876832844575	1.62854349951124	1.64027370478983	1.65298142717498	1.66568914956012	1.67644183773216	1.68719452590420	1.69599217986315	1.70185728250244	1.70478983382209	1.70381231671554	1.69892473118280	1.69208211143695	1.68426197458456	1.67253176930596	1.65689149560117	1.63734115347019	1.61485826001955	1.59042033235582	1.56598240469208	1.53958944281525	1.51221896383187	1.48484848484848	1.45552297165200	1.42913000977517	1.40469208211144	1.37732160312805	1.34897360703812	1.31964809384164	1.29227761485826	1.26783968719453	1.24633431085044	1.22873900293255	1.21700879765396	1.21309872922776	1.22091886608016	1.24633431085044	1.28347996089932	1.33724340175953	1.42228739002933	1.53861192570870	1.67937438905181	1.83870967741935	2.00684261974585	2.18084066471163	2.34604105571848	2.48387096774194	2.59530791788856	2.67741935483871	2.72531769305963	2.74780058651026	2.75366568914956	2.74193548387097	2.71456500488759	2.67155425219941	2.61583577712610	2.54838709677419	2.47018572825024	2.38123167155425	2.28347996089932	2.17888563049853	2.07038123167155	1.97458455522972	1.88660801564027	1.79276637341153	1.70283479960899	1.62072336265885	1.54936461388074	1.48973607038123	1.44183773216031	1.40566959921799	1.37927663734115	1.36070381231672	1.34995112414467	1.34604105571848	1.34701857282502	1.34995112414467	1.35581622678397	1.36265884652981	1.36852394916911	1.37438905180841	1.37927663734115	1.38318670576735	1.38514173998045	1.38318670576735	1.37829912023460	1.37243401759531	1.36461388074291	1.35386119257087	1.34017595307918	1.32258064516129	1.30205278592375	1.27956989247312	1.25610948191593	1.23069403714565	1.20332355816227	1.17399804496579	1.14369501466276	1.11241446725318	1.08699902248289	1.06647116324536	1.04496578690127	1.02346041055718	1.00293255131965	0.984359726295210	0.968719452590420	0.957966764418377	0.952101661779081	0.952101661779081	0.963831867057674	0.993157380254155	1.03421309872923	1.09286412512219	1.18181818181818	1.30107526881720	1.44672531769306	1.61192570869990	1.78787878787879	1.96578690127077	2.13489736070381	2.28445747800587	2.40860215053763	2.50439882697947	2.57086999022483	2.60703812316716	2.62072336265885	2.61779081133920	2.59726295210166	2.56109481915934	2.51221896383187	2.44965786901271	2.37634408602151	2.29423264907136	2.20332355816227	2.10459433040078	2.00195503421310	1.91006842619746	1.82600195503421	1.73802541544477	1.65200391006843	1.57282502443793	1.50146627565982	1.44086021505376	1.39296187683284	1.35777126099707	1.33431085043988	1.32160312805474	1.31867057673509	1.32258064516129	1.33137829912023	1.34115347018573	1.35092864125122	1.36070381231672	1.37047898338221	1.38025415444770	1.39002932551320	1.39980449657869	1.40762463343109	1.41348973607038	1.41642228739003	1.41642228739003	1.41544477028348	1.41251221896383	1.40469208211144	1.39198435972630	1.37438905180841	1.35386119257087	1.33040078201369	1.30498533724340	1.27761485826002	1.24926686217009	1.22091886608016	1.19257086999022	1.16422287390029	1.14271749755621	1.12512218963832	1.10263929618768	1.07917888563050	1.05865102639296	1.04007820136852	1.02346041055718	1.00977517106549	1.00293255131965	1.00391006842620	1.01661779081134	1.04692082111437	1.09090909090909	1.15249266862170	1.24633431085044	1.37145650048876	1.52297165200391	1.69501466275660	1.87781036168133	2.06158357771261	2.23655913978495	2.39491691104594	2.52785923753666	2.63147605083089	2.70576735092864	2.74877810361681	2.76735092864125	2.76930596285435	2.75366568914956	2.72140762463343	2.67546432062561	2.61779081133920	2.54936461388074	2.47311827956989	2.38709677419355	2.29423264907136	2.19648093841642	2.10752688172043	2.02541544477028	1.93743890518084	1.85043988269795	1.77028347996090	1.69892473118280	1.63734115347019	1.58846529814272	1.55131964809384	1.52492668621701	1.50733137829912	1.49853372434018	1.49755620723363	1.50244379276637	1.51026392961877	1.52199413489736	1.53665689149560	1.55131964809384	1.56402737047898	1.57575757575758	1.58553274682307	1.59237536656891	1.59628543499511	1.59628543499511	1.59335288367546	1.58846529814272	1.58260019550342	1.57380254154448	1.56304985337243	1.55131964809384	1.53861192570870	1.52297165200391	1.50537634408602	1.48680351906158	1.46920821114370	1.45161290322581	1.43206256109482	1.41055718475073	1.39393939393939	1.37927663734115	1.36265884652981	1.34799608993157	1.33431085043988	1.32258064516129	1.31476050830890	1.31182795698925	1.31280547409580	1.31867057673509	1.33235581622678	1.35581622678397	1.38709677419355	1.43108504398827	1.49853372434018	1.59139784946237	1.71065493646139	1.85434995112414	2.01564027370479	2.18768328445748	2.36168132942327	2.52688172043011	2.67644183773216	2.80351906158358	2.90420332355816	2.97067448680352	3.00879765395894	3.03030303030303	3.03225806451613	3.01466275659824	2.97751710654936	2.92570869990225	2.85923753665689	2.77908113391984	2.68914956011730	2.59237536656892	2.48973607038123	2.39589442815249	2.30596285434995	2.21016617790811	2.11534701857283	2.02639296187683	1.94623655913979	1.87683284457478	1.81915933528837	1.77419354838710	1.73998044965787	1.71652003910068	1.70283479960899	1.69599217986315	1.69599217986315	1.70576735092864	1.72140762463343	1.73802541544477	1.75464320625611	1.77028347996090	1.78592375366569	1.80058651026393	1.81329423264907	1.82306940371457	1.82991202346041	1.83186705767351	1.83088954056696	1.82600195503421	1.81622678396872	1.80351906158358	1.78690127077224	1.76832844574780	1.74877810361681	1.72629521016618	1.70283479960899	1.67937438905181	1.65493646138807	1.62756598240469	1.60215053763441	1.57869012707722	1.55131964809384	1.52394916911046	1.49853372434018	1.47605083088954	1.45552297165200	1.43695014662757	1.42130987292278	1.40860215053763	1.40078201368524	1.39784946236559	1.40273704789834	1.41544477028348	1.43792766373412	1.47605083088954	1.53665689149560	1.61974584555230	1.72727272727273	1.85630498533724	2.00293255131965	2.15738025415445	2.30987292277615	2.45356793743891	2.57966764418377	2.67155425219941	2.73607038123167	2.78690127077224	2.81915933528837	2.82893450635386	2.81720430107527	2.78494623655914	2.73607038123167	2.67350928641251	2.60019550342131	2.51808406647116	2.42815249266862	2.33333333333333	2.24535679374389	2.16031280547410	2.06549364613881	1.96774193548387	1.87096774193548	1.78005865102639	1.69794721407625	1.62756598240469	1.56891495601173	1.52394916911046	1.49169110459433	1.47018572825024	1.45845552297165	1.45356793743891	1.45259042033236	1.45552297165200	1.46138807429130	1.46920821114370	1.47800586510264	1.48875855327468	1.49853372434018	1.50733137829912	1.51319648093842	1.51612903225806	1.51515151515152	1.51124144672532	1.50439882697947	1.49266862170088	1.47702834799609	1.45845552297165	1.43890518084066	1.41837732160313	1.39882697947214	1.38025415444770	1.36168132942326	1.33919843597263	1.31476050830890	1.29423264907136	1.27370478983382	1.24633431085044	1.21798631476051	1.19159335288368	1.16813294232649	1.14662756598240	1.12805474095797	1.11241446725318	1.09970674486804	1.08993157380254	1.08504398826979	1.08895405669599	1.10263929618768	1.13196480938416	1.18377321603128	1.26392961876833	1.37243401759531	1.50537634408602	1.65786901270772	1.82013685239492	1.98240469208211	2.13489736070381	2.27174975562072	2.38709677419355	2.46823069403715	2.52199413489736	2.56304985337243	2.58553274682307	2.58651026392962	2.56793743890518	2.53274682306940	2.48289345063539	2.42228739002933	2.35190615835777	2.27174975562072	2.18475073313783	2.09286412512219	2.00977517106549	1.92961876832845	1.83968719452590	1.74682306940371	1.65591397849462	1.56989247311828	1.49364613880743	1.42913000977517	1.37829912023460	1.34017595307918	1.31476050830890	1.29912023460411	1.29130009775171	1.28836754643206	1.28739002932551	1.28641251221896	1.28641251221896	1.28641251221896	1.28934506353861	1.29325513196481	1.29814271749756	1.30400782013685	1.30987292277615	1.31476050830890	1.31769305962854	1.31867057673509	1.31867057673509	1.31378299120235	1.30596285434995	1.29618768328446	1.28641251221896	1.27761485826002	1.26783968719453	1.25610948191593	1.24046920821114	1.22091886608016	1.19843597262952	1.17888563049853	1.16031280547410	1.13685239491691	1.11339198435973	1.09188660801564	1.07331378299120	1.05767350928641	1.04496578690127	1.03519061583578	1.03030303030303	1.02932551319648	1.03616813294233	1.05669599217986	1.08699902248289	1.13294232649071	1.20430107526882	1.30400782013685	1.43304007820137	1.58553274682307	1.75562072336266	1.93255131964809	2.10654936461388	2.26881720430108	2.41153470185728	2.52981427174976	2.61290322580645	2.66666666666667	2.70381231671554	2.71945259042033	2.71358748778104	2.68914956011730	2.64907135874878	2.59628543499511	2.53079178885631	2.45650048875855	2.37438905180841	2.28641251221896	2.19452590420332	2.11045943304008	2.03030303030303	1.94134897360704	1.84946236559140	1.75953079178886	1.67644183773216	1.60312805474096	1.54252199413490	1.49657869012708	1.46432062561095	1.44379276637341	1.43304007820137	1.43010752688172	1.43010752688172	1.43206256109482	1.43499511241447	1.44086021505376	1.44770283479961	1.45650048875855	1.46627565982405	1.47702834799609	1.48778103616813	1.49657869012708	1.50342130987292	1.50830889540567	1.51026392961877	1.50635386119257	1.49853372434018	1.48875855327468	1.47996089931574	1.47116324535679	1.46138807429130	1.45259042033236	1.44183773216031	1.42913000977517	1.41446725317693	1.39882697947214	1.38611925708700	1.37243401759531	1.35288367546432	1.33137829912023	1.31085043988270	1.29227761485826	1.27761485826002	1.26783968719453	1.26392961876833	1.26686217008798	1.27565982404692	1.29130009775171	1.31280547409580	1.34115347018573	1.38514173998045	1.44965786901271	1.53958944281525	1.65395894428153	1.79374389051808	1.95503421309873	2.13196480938416	2.31476050830890	2.49169110459433	2.65395894428153	2.79374389051808	2.89442815249267	2.96383186705767	3.01955034213099	3.05376344086022	3.06353861192571	3.05180840664712	3.01857282502444	2.96676441837732	2.90029325513197	2.82209188660802	2.73313782991202	2.63440860215054	2.54056695992180	2.44965786901271	2.34995112414467	2.24633431085044	2.14467253176931	2.04789833822092	1.96089931573803	1.88465298142718	1.81915933528837	1.76539589442815	1.72531769305963	1.69599217986315	1.67546432062561	1.66373411534702	1.65884652981427	1.65884652981427	1.66275659824047	1.67057673509286	1.68035190615836	1.69012707722385	1.69892473118280	1.70674486803519	1.71456500488759	1.72043010752688	1.72238514173998	1.72140762463343	1.71847507331378	1.71260997067449	1.70478983382209	1.69403714565005	1.68035190615836	1.66568914956012	1.64907135874878	1.62952101661779	1.60899315738025	1.58846529814272	1.56793743890518	1.54545454545455	1.52590420332356	1.50733137829912	1.48680351906158	1.46432062561095	1.44183773216031	1.41935483870968	1.39980449657869	1.38416422287390	1.37243401759531	1.36461388074291	1.36070381231672	1.36070381231672	1.36461388074291	1.37341153470186	1.38807429130010	1.41348973607038	1.45454545454545	1.51808406647116	1.60801564027370	1.72727272727273	1.87194525904203	2.03519061583578	2.20918866080156	2.38318670576735	2.54740957966764	2.67741935483871	2.77810361681329	2.86999022482893	2.94232649071359	2.99120234604106	3.01466275659824	3.01368523949169	2.99022482893451	2.94721407624633	2.88660801564027	2.81133919843597	2.72531769305963	2.64125122189638	2.55522971652004	2.45552297165200	2.34897360703812	2.23949169110459	2.13000977517107	2.02541544477028	1.92864125122190	1.84164222873900	1.76637341153470	1.70381231671554	1.65493646138807	1.61876832844575	1.59726295210166	1.58553274682307	1.57869012707722	1.57673509286413	1.58064516129032	1.58846529814272	1.59921798631476	1.61192570869990	1.62267839687195	1.63343108504399	1.64222873900293	1.64711632453568	1.65004887585533	1.64907135874878	1.64125122189638	1.62854349951124	1.61388074291300	1.59628543499511	1.57673509286413	1.55718475073314	1.53665689149560	1.51515151515152	1.49266862170088	1.46725317693060	1.43988269794721	1.41642228739003	1.39589442815249	1.37047898338221	1.34213098729228	1.31476050830890	1.28934506353861	1.26686217008798	1.24828934506354	1.23264907135875	1.21994134897361	1.21016617790811	1.20430107526882	1.20430107526882	1.21016617790811	1.22287390029326	1.24731182795699	1.28836754643206	1.35483870967742	1.44770283479961	1.56989247311828	1.71749755620723	1.88172043010753	2.05571847507331	2.22678396871945	2.38611925708700	2.50928641251222	2.60215053763441	2.68132942326491	2.73900293255132	2.77321603128055	2.78299120234604	2.77126099706745	2.74193548387097	2.69794721407625	2.64027370478983	2.57086999022483	2.49169110459433	2.41446725317693	2.33626588465298	2.24535679374389	2.14662756598240	2.04398826979472	1.94134897360704	1.84261974584555	1.74975562072336	1.66471163245357	1.59139784946237	1.52981427174976	1.47898338220919	1.43890518084066	1.41251221896383	1.39491691104594	1.38025415444770	1.37145650048876	1.36754643206256	1.36656891495601	1.36950146627566	1.37438905180841	1.38123167155425	1.39002932551320	1.39784946236559	1.40371456500489	1.40860215053763	1.41251221896383	1.41348973607038	1.41153470185728	1.40469208211144	1.39589442815249	1.38514173998045	1.37047898338221	1.35386119257087	1.33528836754643	1.31573802541544	1.29521016617791	1.27761485826002	1.26295210166178	1.24242424242424	1.21896383186706	1.19354838709677	1.16911045943304	1.14662756598240	1.12609970674487	1.10654936461388	1.08993157380254	1.07624633431085	1.06549364613881	1.05865102639296	1.05865102639296	1.06940371456500	1.09188660801564	1.13294232649071	1.19648093841642	1.28934506353861	1.41153470185728	1.55913978494624	1.72727272727273	1.90909090909091	2.09384164222874	2.26979472140763	2.41055718475073	2.52297165200391	2.62756598240469	2.71260997067449	2.77321603128055	2.80645161290323	2.81524926686217	2.79960899315738	2.76441837732160	2.71456500488759	2.65200391006843	2.57966764418377	2.49755620723363	2.41739980449658	2.33528836754643	2.22287390029326	2.09579667644184	1.98044965786901	1.87194525904203	1.77223851417400	1.68132942326491	1.60019550342131	1.53079178885631	1.47311827956989	1.42815249266862	1.39784946236559	1.37829912023460	1.36363636363636	1.35483870967742	1.35190615835777	1.35288367546432	1.35679374389052	1.36265884652981	1.36950146627566	1.37536656891496	1.38025415444770	1.38416422287390	1.38709677419355	1.39100684261975	1.39491691104594	1.39589442815249	1.39491691104594	1.39296187683284	1.38905180840665	1.38318670576735	1.37341153470186	1.35972629521017	1.34310850439883	1.32355816226784	1.30009775171066	1.27956989247312	1.26001955034213	1.23753665689150	1.21309872922776	1.18768328445748	1.16324535679374	1.14076246334311	1.12023460410557	1.10263929618768	1.08895405669599	1.07917888563050	1.07233626588465	1.07038123167155	1.07526881720430	1.08797653958944	1.11045943304008	1.14662756598240	1.20430107526882	1.28836754643206	1.40175953079179	1.54252199413490	1.70674486803519	1.88465298142718	2.06940371456501	2.25024437927664	2.39589442815249	2.51417399804497	2.62756598240469	2.72336265884653	2.79472140762463	2.83968719452590	2.86119257086999	2.86021505376344	2.83870967741936	2.80058651026393	2.74780058651026	2.68132942326491	2.60312805474096	2.52492668621701	2.44574780058651	2.35386119257087	2.25513196480938	2.15347018572825	2.05083088954057	1.95210166177908	1.86119257086999	1.77908113391984	1.70772238514174	1.64907135874878	1.60215053763441	1.56793743890518	1.54643206256109	1.53176930596285	1.52394916911046	1.52297165200391	1.52688172043011	1.53470185728250	1.54545454545455	1.55718475073314	1.56891495601173	1.58064516129032	1.59139784946237	1.60215053763441	1.61094819159335	1.61779081133920	1.62267839687195	1.62561094819159	1.62561094819159	1.62267839687195	1.61388074291300	1.60117302052786	1.58553274682307	1.56695992179863	1.54643206256109	1.52394916911046	1.50342130987292	1.48387096774194	1.46236559139785	1.43890518084066	1.41348973607038	1.38611925708700	1.35777126099707	1.33040078201369	1.30400782013685	1.27956989247312	1.25904203323558	1.24340175953079	1.23264907135875	1.22971652003910	1.23264907135875	1.24242424242424	1.26392961876833	1.30107526881720	1.35874877810362	1.44086021505376	1.55034213098729	1.68523949169110	1.84261974584555	2.01466275659824	2.19159335288368	2.34213098729228	2.47409579667644	2.60801564027370	2.72825024437928	2.82795698924731	2.90029325513197	2.94525904203324	2.96285434995112	2.95601173020528	2.92766373411535	2.88074291300098	2.81720430107527	2.74095796676442	2.66373411534702	2.58357771260997	2.48875855327468	2.38514173998045	2.27859237536657	2.17204301075269	2.06842619745846	1.96969696969697	1.87781036168133	1.79374389051808	1.72140762463343	1.66275659824047	1.61974584555230	1.58944281524927	1.56598240469208	1.55229716520039	1.54545454545455	1.54545454545455	1.55034213098729	1.55913978494624	1.56891495601173	1.57869012707722	1.58846529814272	1.59824046920821	1.60703812316716	1.61290322580645	1.61779081133920	1.61974584555230	1.61779081133920	1.60997067448680	1.59726295210166	1.58162267839687	1.56304985337243	1.54252199413490	1.51906158357771	1.49364613880743	1.46920821114370	1.44868035190616	1.43010752688172	1.40762463343109	1.37927663734115	1.34799608993157	1.31573802541544	1.28347996089932	1.25122189638319	1.22091886608016	1.19061583577713	1.16324535679374	1.13978494623656	1.12316715542522	1.11241446725318	1.10361681329423	1.10068426197458	1.10850439882698	1.13000977517107	1.17106549364614	1.23460410557185	1.32649071358749	1.44477028347996	1.58846529814272	1.74975562072336	1.91984359726295	2.06744868035191	2.19745845552297	2.32942326490714	2.44965786901271	2.54740957966764	2.61974584555230	2.66471163245357	2.68328445747801	2.67741935483871	2.65102639296188	2.60703812316716	2.54838709677419	2.48582600195503	2.41935483870968	2.33919843597263	2.24828934506354	2.14858260019550	2.04398826979472	1.93646138807429	1.83088954056696	1.73020527859238	1.63636363636364	1.55131964809384	1.47507331378299	1.41153470185728	1.36656891495601	1.33431085043988	1.30694037145650	1.28641251221896	1.27174975562072	1.26295210166178	1.25904203323558	1.26001955034213	1.26392961876833	1.26881720430108	1.27468230694037	1.28054740957967	1.28543499511241	1.28934506353861	1.29130009775171	1.29227761485826	1.29227761485826	1.28934506353861	1.28445747800587	1.27761485826002	1.26783968719453	1.24046920821114	1.20332355816227	1.17497556207234	1.14858260019550	1.12805474095797	1.10850439882698	1.08406647116325	1.05767350928641	1.03128054740958	1.00391006842620	0.978494623655914	0.956011730205279	0.936461388074291	0.919843597262952	0.906158357771261	0.896383186705767	0.892473118279570	0.894428152492669	0.899315738025415	0.912023460410557	0.937438905180841	0.981427174975562	1.05180840664712	1.15151515151515	1.28054740957967	1.43695014662757	1.61290322580645	1.80058651026393	1.98924731182796	2.14662756598240	2.27761485826002	2.40371456500489	2.51221896383187	2.59628543499511	2.65200391006843	2.68035190615836	2.68328445747801	2.66373411534702	2.62658846529814	2.57478005865103	2.51124144672532	2.44672531769306	2.37732160312806	2.29521016617791	2.20430107526882	2.10654936461388	2.00488758553275	1.90029325513197	1.79765395894428	1.70087976539589	1.60997067448680	1.52688172043011	1.45454545454545	1.39296187683284	1.34799608993157	1.31573802541544	1.29032258064516	1.27272727272727	1.26392961876833	1.26295210166178	1.26783968719453	1.27761485826002	1.29032258064516	1.30596285434995	1.32258064516129	1.33822091886608	1.35190615835777	1.36265884652981	1.37145650048876	1.37536656891496	1.37438905180841	1.37047898338221	1.36265884652981	1.35190615835777	1.33822091886608	1.32258064516129	1.30596285434995	1.28836754643206	1.26881720430108	1.25122189638319	1.23362658846530	1.21016617790811	1.18475073313783	1.16031280547410	1.13587487781036	1.11143695014663	1.08993157380254	1.07429130009775	1.06451612903226	1.06060606060606	1.06158357771261	1.06744868035191	1.07624633431085	1.08797653958944	1.10752688172043	1.13880742913001	1.18768328445748	1.26001955034213	1.35972629521017	1.48973607038123	1.64711632453568	1.82795698924731	2.02150537634409	2.21603128054741	2.37829912023460	2.51515151515152	2.65004887585533	2.76637341153470	2.85630498533724	2.91593352883675	2.94623655913979	2.95210166177908	2.93450635386119	2.89638318670577	2.84359726295210	2.77712609970675	2.70576735092864	2.63049853372434	2.54056695992180	2.43890518084066	2.32844574780059	2.21407624633431	2.09970674486804	1.93157380254154	1.82697947214076	1.73216031280547	1.61290322580645	1.55620723362659	1.51612903225806	1.48191593352884	1.45845552297165	1.44672531769306	1.44477028347996	1.45161290322581	1.47214076246334	1.48973607038123	1.50830889540567	1.54447702834800	1.56109481915934	1.57575757575758	1.59921798631476	1.60703812316716	1.61192570869990	1.61094819159335	1.60606060606061	1.59824046920821	1.58651026392962	1.57184750733138	1.55620723362659	1.54252199413490	1.52981427174976	1.51417399804497	1.49755620723363	1.47898338220919	1.45845552297165	1.43499511241447	1.41055718475073	1.38611925708700	1.36265884652981	1.34213098729228	1.32453567937439	1.31085043988270	1.30205278592375	1.29814271749756	1.29618768328446	1.29814271749756	1.30596285434995	1.32258064516129	1.35386119257087	1.40371456500489	1.47702834799609	1.57869012707722	1.70869990224829	1.86510263929619	2.01368523949169	2.15835777126100	2.32258064516129	2.48875855327468	2.64320625610948	2.77517106549365	2.87878787878788	2.95112414467253	2.99217986314761	3.00586510263930	2.99608993157380	2.96383186705767	2.91202346041056	2.85337243401760	2.78592375366569	2.70381231671554	2.60899315738025	2.50537634408602	2.39589442815249	2.28543499511241	2.17595307917889	2.07038123167155	1.96969696969697	1.87585532746823	1.79178885630499	1.72629521016618	1.67546432062561	1.63245356793744	1.60019550342131	1.57771260997067	1.56598240469208	1.56304985337243	1.56695992179863	1.57380254154448	1.58260019550342	1.59139784946237	1.59921798631476	1.60508308895406	1.60801564027370	1.60801564027370	1.60508308895406	1.60117302052786	1.59628543499511	1.58846529814272	1.57673509286413	1.56011730205279	1.53958944281525	1.51808406647116	1.49462365591398	1.46920821114370	1.44672531769306	1.42521994134897	1.39882697947214	1.36852394916911	1.33431085043988	1.29814271749756	1.25806451612903	1.21603128054741	1.17302052785924	1.13000977517107	1.08895405669599	1.05278592375367	1.01955034213099	0.996089931573803	0.980449657869013	0.964809384164223	0.952101661779081	0.945259042033236	0.951124144672532	0.973607038123167	1.01759530791789	1.09090909090909	1.19452590420332	1.32942326490714	1.48875855327468	1.64027370478983	1.78787878787879	1.95405669599218	2.12316715542522	2.27565982404692	2.39784946236559	2.48875855327468	2.54936461388074	2.58162267839687	2.58748778103617	2.56989247311828	2.53470185728250	2.48484848484849	2.42913000977517	2.36754643206256	2.29130009775171	2.20332355816227	2.10752688172043	2.00586510263930	1.90127077223851	1.79472140762463	1.68914956011730	1.58846529814272	1.49560117302053	1.41251221896383	1.34897360703812	1.30107526881720	1.25708699902248	1.22091886608016	1.19452590420332	1.17790811339198	1.16911045943304	1.16617790811339	1.16715542521994	1.16911045943304	1.17008797653959	1.17008797653959	1.17008797653959	1.17106549364614	1.17302052785924	1.17204301075269	1.17106549364614	1.16911045943304	1.16422287390029	1.15738025415445	1.14662756598240	1.13294232649071	1.11632453567937	1.09872922776149	1.08015640273705	1.06549364613881	1.05278592375367	1.03519061583578	1.01466275659824	0.992179863147605	0.967741935483871	0.944281524926686	0.921798631476051	0.901270772238514	0.882697947214076	0.866080156402737	0.850439882697947	0.836754643206256	0.829912023460411	0.827956989247312	0.826979472140763	0.830889540566960	0.843597262952102	0.872922776148583	0.922776148582600	1	1.10654936461388	1.24046920821114	1.39980449657869	1.57575757575758	1.73509286412512	1.88172043010753	2.03616813294233	2.18181818181818	2.30791788856305	2.40957966764418	2.48387096774194	2.53176930596285	2.55425219941349	2.55425219941349	2.53470185728250	2.49853372434018	2.45063538611926	2.39882697947214	2.34213098729228	2.27174975562072	2.18963831867058	2.09872922776149	2.00293255131965	1.90420332355816	1.80547409579668	1.71065493646139	1.62072336265885	1.53958944281525	1.46920821114370	1.41739980449658	1.37829912023460	1.34506353861193	1.32062561094819	1.30596285434995	1.30009775171066	1.30009775171066	1.30498533724340	1.31378299120235	1.32453567937439	1.33626588465298	1.34799608993157	1.35972629521017	1.37047898338221	1.37927663734115	1.38514173998045	1.38807429130010	1.38807429130010	1.38514173998045	1.38025415444770	1.37145650048876	1.36070381231672	1.34897360703812	1.33431085043988	1.31769305962854	1.30205278592375	1.28739002932551	1.26881720430108	1.24828934506354	1.22678396871945	1.20332355816227	1.17986314760508	1.15835777126100	1.13880742913001	1.11925708699902	1.10068426197458	1.08504398826979	1.07624633431085	1.07233626588465	1.07038123167155	1.07135874877810	1.07917888563050	1.09677419354839	1.13098729227762	1.18768328445748	1.26979472140762	1.37927663734115	1.51612903225806	1.67644183773216	1.85141739980450	2.00782013685240	2.15053763440860	2.30205278592375	2.44574780058651	2.57086999022483	2.66959921798631	2.74095796676442	2.78494623655914	2.80449657869013	2.80156402737048	2.77908113391984	2.74095796676442	2.69501466275660	2.64125122189638	2.57575757575758	2.50048875855327	2.41739980449658	2.32844574780059	2.23460410557185	2.13685239491691	2.04105571847507	1.94819159335288	1.86119257086999	1.78201368523949	1.71163245356794	1.65591397849462	1.61388074291300	1.57771260997067	1.54740957966764	1.52492668621701	1.51026392961877	1.50244379276637	1.50048875855327	1.50342130987292	1.51026392961877	1.52003910068426	1.53079178885631	1.54252199413490	1.55327468230694	1.56109481915934	1.56695992179863	1.57086999022483	1.57478005865103	1.57673509286413	1.57575757575758	1.57184750733138	1.56695992179863	1.55913978494624	1.54838709677419	1.53470185728250	1.52101661779081	1.50733137829912	1.49169110459433	1.47311827956989	1.45259042033236	1.43108504398827	1.40957966764418	1.38807429130010	1.36852394916911	1.35190615835777	1.33724340175953	1.32355816226784	1.31378299120235	1.30889540566960	1.30498533724340	1.30303030303030	1.30596285434995	1.31476050830890	1.33431085043988	1.36950146627566	1.42521994134897	1.50537634408602	1.61094819159335	1.73998044965787	1.89051808406647	2.03030303030303	2.16422287390029	2.31573802541545	2.46725317693060	2.60606060606061	2.72531769305963	2.82013685239492	2.88954056695992	2.93157380254154	2.94916911045943	2.94330400782014	2.91691104594330	2.87878787878788	2.83088954056696	2.77028347996090	2.69794721407625	2.61485826001955	2.52297165200391	2.42521994134897	2.32355816226784	2.22091886608016	2.11925708699902	2.02248289345064	1.93352883675464	1.85337243401760	1.79081133919844	1.73998044965787	1.69403714565005	1.65689149560117	1.62854349951124	1.60899315738025	1.59824046920821	1.59530791788856	1.59921798631476	1.63929618768328	1.69696969696970	1.73313782991202	1.75757575757576	1.77517106549365	1.78983382209189	1.80156402737048	1.81133919843597	1.81818181818182	1.82111436950147	1.82111436950147	1.81720430107527	1.80742913000978	1.79472140762463	1.77908113391984	1.76148582600196	1.74486803519062	1.72922776148583	1.70967741935484	1.68719452590420	1.66471163245357	1.64125122189638	1.61681329423265	1.59139784946237	1.56598240469208	1.54056695992180	1.51612903225806	1.49364613880743	1.47702834799609	1.46334310850440	1.44965786901271	1.43792766373412	1.42913000977517	1.42717497556207	1.43304007820137	1.45063538611926	1.48387096774194	1.53665689149560	1.61388074291300	1.71358748778104	1.83577712609971	1.95405669599218	2.07135874877810	2.20723362658847	2.34506353861193	2.47311827956989	2.58162267839687	2.66862170087977	2.73020527859238	2.76539589442815	2.77712609970675	2.76637341153470	2.73704789833822	2.69794721407625	2.65102639296188	2.59042033235582	2.52003910068426	2.44086021505376	2.35386119257087	2.26001955034213	2.16129032258065	2.06256109481916	1.96578690127077	1.87292277614858	1.78787878787879	1.71163245356794	1.65200391006843	1.60606060606061	1.56402737047898	1.52981427174976	1.50439882697947	1.48778103616813	1.47800586510264	1.47311827956989	1.47311827956989	1.47800586510264	1.48582600195503	1.49462365591398	1.50342130987292	1.50928641251222	1.51417399804497	1.51612903225806	1.51612903225806	1.51417399804497	1.51026392961877	1.50342130987292	1.49462365591398	1.48289345063539	1.46725317693060	1.44770283479961	1.43108504398827	1.41446725317693	1.39198435972630	1.36656891495601	1.33822091886608	1.30987292277615	1.28054740957967	1.25219941348974	1.22482893450635	1.19745845552297	1.17204301075269	1.14956011730205	1.13000977517107	1.11632453567937	1.10752688172043	1.09775171065494	1.08895405669599	1.08406647116325	1.08602150537634	1.09970674486804	1.12903225806452	1.17790811339198	1.25122189638319	1.35092864125122	1.47605083088954	1.59921798631476	1.72531769305963	1.87194525904203	2.02248289345064	2.16520039100684	2.29227761485826	2.39784946236559	2.48093841642229	2.53861192570870	2.57282502443793	2.58553274682307	2.57966764418377	2.55816226783969	2.52785923753666	2.48778103616813	2.43597262952102	2.37438905180841	2.30303030303030	2.22287390029326	2.13685239491691	2.04692082111437	1.95601173020528	1.86705767350929	1.78201368523949	1.70185728250244	1.63734115347019	1.58455522971652	1.53274682306940	1.48778103616813	1.45161290322581	1.42521994134897	1.40762463343109	1.39784946236559	1.39589442815249	1.40078201368524	1.41055718475073	1.42130987292278	1.43206256109482	1.44183773216031	1.45063538611926	1.45747800586510	1.46236559139785	1.46529814271750	1.46529814271750	1.46334310850440	1.45943304007820	1.45356793743891	1.44574780058651	1.43499511241447	1.42228739002933	1.41251221896383	1.40273704789834	1.39002932551320	1.37438905180841	1.35679374389052	1.33822091886608	1.31964809384164	1.30009775171066	1.27859237536657	1.25708699902248	1.23655913978495	1.21798631476051	1.20136852394917	1.18963831867058	1.18181818181818	1.17302052785924	1.16520039100684	1.16226783968719	1.16715542521994	1.18279569892473	1.21407624633431	1.26588465298143	1.34213098729228	1.44379276637341	1.56989247311828	1.69501466275660	1.82209188660802	1.96969696969697	2.12121212121212	2.26588465298143	2.39687194525904	2.50733137829912	2.59335288367546	2.65395894428153	2.69012707722385	2.70576735092864	2.70283479960899	2.68230694037146	2.65200391006843	2.61290322580645	2.56304985337243	2.50342130987292	2.43401759530792	2.35679374389052	2.27272727272727	2.18572825024438	2.09775171065494	2.01075268817204	1.92668621700880	1.84946236559140	1.78787878787879	1.73802541544477	1.69012707722385	1.65102639296188	1.62170087976540	1.60215053763441	1.59042033235582	1.58455522971652	1.58455522971652	1.58846529814272	1.59628543499511	1.60606060606061	1.61681329423265	1.62658846529814	1.63734115347019	1.64711632453568	1.65493646138807	1.66177908113392	1.66862170087977	1.67350928641251	1.67741935483871	1.67937438905181	1.67839687194526	1.67546432062561	1.66959921798631	1.66373411534702	1.65591397849462	1.64418377321603	1.62952101661779	1.61290322580645	1.59433040078201	1.57478005865103	1.55425219941349	1.53470185728250	1.51612903225806	1.49755620723363	1.47996089931574	1.46529814271750	1.45454545454545	1.44672531769306	1.43988269794721	1.42913000977517	1.42033235581623	1.42130987292278	1.43108504398827	1.45161290322581	1.48582600195503	1.53763440860215	1.61290322580645	1.71456500488759	1.82209188660802	1.94037145650049	2.09090909090909	2.26001955034213	2.43304007820137	2.59921798631476	2.75073313782991	2.88074291300098	2.98435972629521	3.05962854349951	3.10752688172043	3.12903225806452	3.12609970674487	3.10459433040078	3.06647116324536	3.01466275659824	2.95014662756598	2.87487781036168	2.79081133919844	2.69892473118280	2.60117302052786	2.49853372434018	2.39296187683284	2.28934506353861	2.19061583577713	2.10654936461388	2.03421309872923	1.96383186705767	1.90029325513197	1.84750733137830	1.80742913000978	1.78005865102639	1.76344086021505	1.75464320625611	1.75268817204301	1.75659824046921	1.76344086021505	1.77223851417400	1.78005865102639	1.78885630498534	1.79863147605083	1.80742913000978	1.81329423264907	1.81622678396872	1.81720430107527	1.81622678396872	1.81231671554252	1.80351906158358	1.78983382209189	1.77321603128055	1.75659824046921	1.73998044965787	1.72140762463343	1.70087976539589	1.67644183773216	1.65102639296188	1.62463343108504	1.59921798631476	1.57282502443793	1.54643206256109	1.52003910068426	1.49560117302053	1.47702834799609	1.46138807429130	1.44379276637341	1.42424242424242	1.40469208211144	1.39002932551320	1.38025415444770	1.37438905180841	1.37438905180841	1.38416422287390	1.40664711632454	1.44868035190616	1.51515151515152	1.59237536656891	1.68426197458456	1.80938416422287	1.96089931573803	2.12707722385142	2.29814271749756	2.46041055718475	2.60508308895406	2.72629521016618	2.81915933528837	2.88172043010753	2.91593352883675	2.92375366568915	2.91006842619746	2.88074291300098	2.83577712609971	2.77712609970675	2.70576735092864	2.62463343108504	2.53567937438905	2.43792766373412	2.33333333333333	2.22482893450635	2.11436950146628	2.00586510263930	1.91495601173021	1.83870967741935	1.76148582600196	1.69110459433040	1.63147605083089	1.58162267839687	1.54349951124145	1.51808406647116	1.50146627565982	1.49364613880743	1.49169110459433	1.49560117302053	1.50244379276637	1.51124144672532	1.52101661779081	1.52883675464321	1.53470185728250	1.53958944281525	1.54154447702835	1.53958944281525	1.53470185728250	1.52688172043011	1.51808406647116	1.50830889540567	1.49657869012708	1.48582600195503	1.47409579667644	1.45747800586510	1.43695014662757	1.41348973607038	1.39002932551320	1.36559139784946	1.33919843597263	1.31182795698925	1.28445747800587	1.25708699902248	1.23069403714565	1.21114369501466	1.19550342130987	1.17986314760508	1.16422287390029	1.15053763440860	1.13978494623656	1.13391984359726	1.13391984359726	1.14369501466276	1.16520039100684	1.20332355816227	1.26295210166178	1.34897360703812	1.44379276637341	1.55327468230694	1.69403714565005	1.85630498533724	2.03030303030303	2.20332355816227	2.36559139784946	2.50830889540567	2.62365591397849	2.71065493646139	2.76930596285435	2.80156402737048	2.80938416422287	2.79667644183773	2.76735092864125	2.72336265884653	2.66568914956012	2.59433040078201	2.51319648093842	2.42326490713588	2.32551319648094	2.22385141739980	2.12023460410557	2.01564027370479	1.91397849462366	1.82795698924731	1.75366568914956	1.67937438905181	1.60899315738025	1.54740957966764	1.49657869012708	1.45650048875855	1.42815249266862	1.41055718475073	1.40175953079179	1.39980449657869	1.40273704789834	1.40957966764418	1.41739980449658	1.42619745845552	1.43401759530792	1.44183773216031	1.44868035190616	1.45259042033236	1.45356793743891	1.45356793743891	1.45161290322581	1.44672531769306	1.43792766373412	1.42717497556207	1.41739980449658	1.40664711632454	1.39198435972630	1.37341153470186	1.35288367546432	1.33040078201369	1.30791788856305	1.28445747800587	1.25904203323558	1.23264907135875	1.20625610948192	1.18181818181818	1.16324535679374	1.14760508308895	1.12805474095797	1.10850439882698	1.09090909090909	1.07624633431085	1.06744868035191	1.06451612903226	1.06842619745846	1.08211143695015	1.11045943304008	1.16031280547410	1.23460410557185	1.31964809384164	1.42130987292278	1.55718475073314	1.71749755620723	1.89247311827957	2.07135874877810	2.24535679374389	2.40371456500489	2.53958944281525	2.65004887585533	2.73020527859238	2.78299120234604	2.80742913000978	2.80938416422287	2.79472140762463	2.76441837732160	2.71847507331378	2.65982404692082	2.58944281524927	2.50928641251222	2.42033235581623	2.32453567937439	2.19648093841642	2.05376344086022	1.93352883675464	1.83968719452590	1.76148582600196	1.68230694037146	1.60899315738025	1.54447702834800	1.48973607038123	1.44770283479961	1.41837732160313	1.39882697947214	1.38709677419355	1.38318670576735	1.38416422287390	1.38905180840665	1.39589442815249	1.40469208211144	1.41251221896383	1.41739980449658	1.42130987292278	1.42521994134897	1.42913000977517	1.43108504398827	1.43010752688172	1.42815249266862	1.42521994134897	1.42326490713588	1.42130987292278	1.41837732160313	1.41348973607038	1.40664711632454	1.39784946236559	1.38709677419355	1.37438905180841	1.36070381231672	1.34408602150538	1.32844574780059	1.31182795698925	1.29521016617791	1.28347996089932	1.27272727272727	1.26001955034213	1.24828934506354	1.23753665689150	1.22873900293255	1.22385141739980	1.22189638318671	1.22482893450635	1.23362658846530	1.25024437927664	1.27663734115347	1.31182795698925	1.35972629521017	1.43304007820137	1.53274682306940	1.65689149560117	1.80254154447703	1.96383186705767	2.13098729227761	2.29521016617791	2.44868035190616	2.58455522971652	2.69696969696970	2.78494623655914	2.83968719452590	2.86901270772239	2.88269794721408	2.87683284457478	2.85337243401760	2.81329423264907	2.76050830889541	2.69696969696970	2.62561094819159	2.54643206256109	2.43695014662757	2.32160312805474	2.25024437927664	2.19061583577713	2.11436950146628	2.03225806451613	1.95210166177908	1.87781036168133	1.81231671554252	1.75757575757576	1.71358748778104	1.68035190615836	1.65493646138807	1.63929618768328	1.63245356793744	1.63049853372434	1.63343108504399	1.63929618768328	1.64809384164223	1.65884652981427	1.67057673509286	1.68230694037146	1.69305962854350	1.70381231671554	1.71260997067449	1.71749755620723	1.71847507331378	1.71554252199414	1.70772238514174	1.70185728250244	1.69599217986315	1.68230694037146	1.66764418377322	1.65102639296188	1.63245356793744	1.61876832844575	1.60215053763441	1.57673509286413	1.55327468230694	1.53372434017595	1.51124144672532	1.48973607038123	1.47409579667644	1.45650048875855	1.43597262952102	1.41837732160313	1.40469208211144	1.39296187683284	1.38611925708700	1.38220918866080	1.38220918866080	1.38709677419355	1.39882697947214	1.41055718475073	1.44086021505376	1.50439882697947	1.58846529814272	1.69501466275660	1.82209188660802	1.96676441837732	2.12121212121212	2.27663734115347	2.42424242424242	2.55620723362659	2.65395894428153	2.72336265884653	2.78005865102639	2.81622678396872	2.83088954056696	2.82502443792766	2.79765395894428	2.75366568914956	2.69696969696970	2.62854349951124	2.55034213098729	2.46432062561095	2.38123167155425	2.29912023460411	2.20527859237537	2.10459433040078	2.00488758553275	1.90909090909091	1.82013685239492	1.73998044965787	1.67155425219941	1.61485826001955	1.56989247311828	1.53763440860215	1.51808406647116	1.50928641251222	1.50733137829912	1.50928641251222	1.51417399804497	1.52003910068426	1.52590420332356	1.53176930596285	1.53567937438905	1.53763440860215	1.53861192570870	1.53861192570870	1.53665689149560	1.53470185728250	1.53079178885631	1.52297165200391	1.51221896383187	1.49755620723363	1.47996089931574	1.45943304007820	1.43890518084066	1.41739980449658	1.39296187683284	1.36754643206256	1.34213098729228	1.31573802541544	1.29325513196481	1.27370478983382	1.24926686217009	1.22385141739980	1.19941348973607	1.17693059628544	1.15542521994135	1.13587487781036	1.11827956989247	1.10459433040078	1.09286412512219	1.08602150537634	1.08602150537634	1.09481915933529	1.11143695014663	1.14271749755621	1.19354838709677	1.26881720430108	1.36950146627566	1.49462365591398	1.63929618768328	1.79569892473118	1.95698924731183	2.11143695014663	2.25122189638319	2.35679374389052	2.43401759530792	2.49755620723363	2.54056695992180	2.56011730205279	2.55816226783969	2.53763440860215	2.50048875855327	2.44965786901271	2.38709677419355	2.31476050830890	2.23264907135875	2.15347018572825	2.07526881720430	1.98435972629521	1.88660801564027	1.78885630498534	1.69403714565005	1.60508308895406	1.52394916911046	1.45259042033236	1.39296187683284	1.34701857282502	1.31280547409580	1.28739002932551	1.27174975562072	1.26392961876833	1.26001955034213	1.26099706744868	1.26490713587488	1.27174975562072	1.28054740957967	1.29032258064516	1.30009775171066	1.30889540566960	1.31573802541544	1.31964809384164	1.32355816226784	1.32551319648094	1.32453567937439	1.32160312805474	1.30303030303030	1.27468230694037	1.25415444770283	1.23558162267840	1.21700879765396	1.19745845552297	1.17595307917889	1.15347018572825	1.13587487781036	1.12023460410557	1.09775171065494	1.07331378299120	1.04887585532747	1.02346041055718	1	0.979472140762463	0.960899315738026	0.945259042033236	0.933528836754643	0.925708699902248	0.923753665689150	0.928641251221896	0.941348973607038	0.962854349951124	0.999022482893451	1.05474095796676	1.13782991202346	1.25122189638319	1.39296187683284	1.56011730205279	1.74486803519062	1.93841642228739	2.12805474095797	2.28152492668622	2.40566959921799	2.52297165200391	2.61974584555230	2.69110459433040	2.73607038123167	2.75464320625611	2.74975562072336	2.72434017595308	2.68132942326491	2.62267839687195	2.55131964809384	2.47018572825024	2.39100684261975	2.30987292277615	2.21798631476051	2.11925708699902	2.01661779081134	1.91397849462366	1.81427174975562	1.71945259042033	1.63343108504399	1.55816226783969	1.49462365591398	1.44379276637341	1.40957966764418	1.38709677419355	1.37145650048876	1.36363636363636	1.36265884652981	1.36656891495601	1.37438905180841	1.38318670576735	1.39100684261975	1.39784946236559	1.40371456500489	1.40860215053763	1.41348973607038	1.41837732160313	1.42228739002933	1.42326490713588	1.42228739002933	1.41837732160313	1.41055718475073	1.39980449657869	1.38514173998045	1.36852394916911	1.34897360703812	1.32844574780059	1.30791788856305	1.29032258064516	1.27370478983382	1.25219941348974	1.22971652003910	1.20332355816227	1.17497556207234	1.14662756598240	1.11925708699902	1.09384164222874	1.07233626588465	1.05474095796676	1.04301075268817	1.03616813294233	1.03616813294233	1.04105571847507	1.04985337243402	1.06842619745846	1.10166177908113	1.15640273704790	1.23753665689150	1.34701857282502	1.48484848484848	1.64809384164223	1.82991202346041	2.01955034213099	2.18279569892473	2.32551319648094	2.47214076246334	2.60508308895406	2.71554252199413	2.79960899315738	2.85532746823069	2.88367546432063	2.88563049853372	2.86608015640274	2.82795698924731	2.77614858260020	2.71260997067449	2.64516129032258	2.57478005865103	2.49364613880743	2.40371456500489	2.30694037145650	2.20527859237537	2.10361681329423	2.00488758553275	1.91202346041056	1.82795698924731	1.75464320625611	1.69305962854350	1.64809384164223	1.61681329423265	1.59237536656891	1.57673509286413	1.56793743890518	1.56598240469208	1.57184750733138	1.58162267839687	1.59237536656891	1.60508308895406	1.61974584555230	1.63343108504399	1.64516129032258	1.65591397849462	1.66373411534702	1.66959921798631	1.67448680351906	1.67741935483871	1.67839687194526	1.67741935483871	1.67350928641251	1.66764418377322	1.65786901270772	1.64516129032258	1.62952101661779	1.61583577712610	1.60215053763441	1.58455522971652	1.56500488758553	1.54349951124145	1.52101661779081	1.49951124144673	1.47800586510264	1.45650048875855	1.43695014662757	1.41837732160313	1.40175953079179	1.38905180840665	1.38220918866080	1.37927663734115	1.37829912023460	1.37927663734115	1.38514173998045	1.39980449657869	1.42815249266862	1.47507331378299	1.54349951124145	1.63734115347019	1.75659824046921	1.90029325513197	2.04007820136852	2.17888563049853	2.33919843597263	2.50244379276637	2.65493646138807	2.78885630498534	2.89736070381232	2.97849462365591	3.03323558162268	3.06060606060606	3.06060606060606	3.03616813294233	2.99315738025415	2.94037145650049	2.87781036168133	2.80058651026393	2.71260997067449	2.61779081133920	2.51710654936461	2.41153470185728	2.30596285434995	2.20136852394917	2.09970674486804	2.00488758553275	1.91984359726295	1.85337243401760	1.79960899315738	1.75073313782991	1.71163245356794	1.68230694037146	1.66177908113392	1.65004887585533	1.64613880742913	1.64809384164223	1.65689149560117	1.66959921798631	1.68328445747801	1.69403714565005	1.70185728250244	1.70869990224829	1.71456500488759	1.71847507331378	1.71847507331378	1.71554252199414	1.71065493646139	1.70381231671554	1.69403714565005	1.68132942326491	1.66568914956012	1.64907135874878	1.63343108504399	1.61779081133920	1.59824046920821	1.57478005865103	1.54936461388074	1.52297165200391	1.49755620723363	1.47018572825024	1.43988269794721	1.40957966764418	1.38025415444770	1.35092864125122	1.32844574780059	1.31182795698925	1.29325513196481	1.27468230694037	1.25806451612903	1.24535679374389	1.23753665689150	1.23558162267840	1.24242424242424	1.26295210166178	1.30205278592375	1.37438905180841	1.47507331378299	1.57380254154448	1.67839687194526	1.80938416422287	1.95796676441838	2.11143695014663	2.26099706744868	2.39687194525904	2.51417399804497	2.60606060606061	2.67155425219941	2.70967741935484	2.72336265884653	2.71554252199413	2.69208211143695	2.65395894428153	2.60410557184751	2.54252199413490	2.46920821114370	2.38807429130010	2.30009775171066	2.20723362658847	2.11045943304008	2.01270772238514	1.91593352883675	1.82404692082111	1.74877810361681	1.68523949169110	1.62170087976540	1.56500488758553	1.51808406647116	1.48093841642229	1.45356793743891	1.43695014662757	1.42815249266862	1.42619745845552	1.42619745845552	1.42913000977517	1.43499511241447	1.44183773216031	1.44770283479961	1.45161290322581	1.45552297165200	1.45845552297165	1.45943304007820	1.45747800586510	1.45454545454545	1.44868035190616	1.43890518084066	1.42717497556207	1.41348973607038	1.40175953079179	1.39002932551320	1.37341153470186	1.35288367546432	1.33040078201369	1.30791788856305	1.28543499511241	1.26197458455523	1.23949169110459	1.21798631476051	1.19648093841642	1.17595307917889	1.16031280547410	1.14760508308895	1.13294232649071	1.12023460410557	1.10850439882698	1.09970674486804	1.09481915933529	1.09579667644184	1.10557184750733	1.12903225806452	1.17302052785924	1.24242424242424	1.33919843597263	1.44379276637341	1.55913978494624	1.70381231671554	1.86412512218964	2.02834799608993	2.18572825024438	2.32746823069404	2.44672531769306	2.53861192570870	2.60312805474096	2.64125122189638	2.65689149560117	2.65200391006843	2.63147605083089	2.59726295210166	2.55034213098729	2.49169110459433	2.42326490713588	2.34701857282502	2.26392961876833	2.17595307917889	2.08308895405670	1.98826979472141	1.89345063538612	1.80254154447703	1.72727272727273	1.66275659824047	1.59921798631476	1.54154447702835	1.49169110459433	1.45063538611926	1.42130987292278	1.40175953079179	1.39002932551320	1.38514173998045	1.38514173998045	1.38905180840665	1.39589442815249	1.40566959921799	1.41446725317693	1.42033235581623	1.42521994134897	1.42913000977517	1.43108504398827	1.43010752688172	1.42717497556207	1.42326490713588	1.41739980449658	1.41153470185728	1.40371456500489	1.39687194525904	1.39002932551320	1.37829912023460	1.36265884652981	1.34506353861193	1.32746823069404	1.30791788856305	1.28641251221896	1.26392961876833	1.24046920821114	1.21603128054741	1.19159335288368	1.17302052785924	1.15933528836755	1.14271749755621	1.12609970674487	1.11143695014663	1.10068426197458	1.09481915933529	1.09384164222874	1.09970674486804	1.11632453567937	1.14662756598240	1.19648093841642	1.26979472140762	1.35288367546432	1.45063538611926	1.58064516129032	1.73313782991202	1.89931573802542	2.06940371456501	2.23264907135875	2.38025415444770	2.50537634408602	2.60606060606061	2.67937438905181	2.72531769305963	2.74389051808407	2.74095796676442	2.72336265884653	2.69012707722385	2.64418377321603	2.58748778103617	2.52101661779081	2.44672531769306	2.36559139784946	2.27663734115347	2.18181818181818	2.08406647116325	1.98729227761486	1.90420332355816	1.83186705767351	1.75562072336266	1.68328445747801	1.61876832844575	1.56598240469208	1.52492668621701	1.49462365591398	1.47507331378299	1.46236559139785	1.45650048875855	1.45454545454545	1.45650048875855	1.46138807429130	1.46725317693060	1.47311827956989	1.47996089931574	1.48484848484848	1.48875855327468	1.49169110459433	1.49169110459433	1.49071358748778	1.48680351906158	1.48093841642229	1.47605083088954	1.47116324535679	1.46432062561095	1.45356793743891	1.44086021505376	1.42815249266862	1.41446725317693	1.39882697947214	1.38123167155425	1.36168132942326	1.34310850439883	1.32551319648094	1.30889540566960	1.29618768328446	1.28543499511241	1.27174975562072	1.25708699902248	1.24144672531769	1.22678396871945	1.21603128054741	1.21114369501466	1.21212121212121	1.21798631476051	1.23069403714565	1.25415444770283	1.28347996089932	1.32355816226784	1.38514173998045	1.47214076246334	1.58553274682307	1.72140762463343	1.87683284457478	2.04594330400782	2.21700879765396	2.38123167155425	2.53079178885631	2.65884652981427	2.76050830889541	2.82697947214076	2.86510263929619	2.88954056695992	2.89442815249267	2.88074291300098	2.85239491691105	2.81036168132942	2.75562072336266	2.69110459433040	2.61779081133920	2.53665689149560	2.44965786901271	2.36852394916911	2.29032258064516	2.20430107526882	2.11730205278592	2.03421309872923	1.95405669599218	1.87781036168133	1.81231671554252	1.75953079178886	1.71749755620723	1.68719452590420	1.66764418377322	1.65786901270772	1.65493646138807	1.65786901270772	1.66666666666667	1.67937438905181	1.69305962854350	1.70674486803519	1.71945259042033	1.73118279569892	1.74193548387097	1.75073313782991	1.75757575757576	1.76050830889541	1.76246334310850	1.76344086021505	1.76148582600196	1.75757575757576	1.75073313782991	1.74095796676442	1.72825024437928	1.71260997067449	1.69403714565005	1.67253176930596	1.64907135874878	1.62463343108504	1.60117302052786	1.58162267839687	1.56402737047898	1.54252199413490	1.51906158357771	1.49560117302053	1.47311827956989	1.45161290322581	1.43206256109482	1.41544477028348	1.40273704789834	1.39296187683284	1.38807429130010	1.39002932551320	1.39687194525904	1.41055718475073	1.43304007820137	1.47116324535679	1.52981427174976	1.61290322580645	1.72336265884653	1.86021505376344	2.01564027370479	2.18377321603128	2.35483870967742	2.52101661779081	2.65493646138807	2.76246334310850	2.86314760508309	2.94428152492669	3.00097751710655	3.03128054740958	3.03714565004888	3.01857282502444	2.98044965786901	2.92668621700880	2.85923753665689	2.77908113391984	2.69892473118280	2.61583577712610	2.51906158357771	2.41544477028348	2.30889540566960	2.20136852394917	2.09775171065494	2.00293255131965	1.91886608015640	1.84457478005865	1.78299120234604	1.73216031280547	1.69208211143695	1.66568914956012	1.65004887585533	1.64125122189638	1.64027370478983	1.64516129032258	1.65493646138807	1.66764418377322	1.68035190615836	1.69110459433040	1.69990224828935	1.70772238514174	1.71260997067449	1.71456500488759	1.71456500488759	1.71163245356794	1.70674486803519	1.69990224828935	1.69012707722385	1.67644183773216	1.65884652981427	1.63734115347019	1.61388074291300	1.58846529814272	1.56109481915934	1.53274682306940	1.50830889540567	1.48778103616813	1.46432062561095	1.43695014662757	1.40762463343109	1.37829912023460	1.34995112414467	1.32062561094819	1.29325513196481	1.26783968719453	1.24437927663734	1.22385141739980	1.20918866080156	1.19941348973607	1.18963831867058	1.18279569892473	1.18475073313783	1.20136852394917	1.23558162267840	1.29325513196481	1.37927663734115	1.49364613880743	1.63245356793744	1.78983382209189	1.95894428152493	2.10752688172043	2.23949169110459	2.37732160312806	2.50439882697947	2.60703812316716	2.68230694037146	2.72922776148583	2.75073313782991	2.74584555229717	2.71945259042033	2.67448680351906	2.61388074291300	2.55034213098729	2.48191593352884	2.39882697947214	2.30596285434995	2.20527859237537	2.09970674486804	1.99315738025415	1.88758553274682	1.78592375366569	1.69110459433040	1.60606060606061	1.53274682306940	1.47214076246334	1.42815249266862	1.39687194525904	1.37145650048876	1.35386119257087	1.34213098729228	1.33528836754643	1.33333333333333	1.33626588465298	1.34115347018573	1.34701857282502	1.35386119257087	1.35972629521017	1.36559139784946	1.36950146627566	1.36950146627566	1.36754643206256	1.36461388074291	1.36070381231672	1.35386119257087	1.34310850439883	1.32942326490714	1.31280547409580	1.29325513196481	1.27370478983382	1.25904203323558	1.24437927663734	1.22385141739980	1.20136852394917	1.17693059628544	1.15347018572825	1.13000977517107	1.10459433040078	1.07722385141740	1.05180840664712	1.03030303030303	1.01075268817204	0.993157380254155	0.984359726295210	0.979472140762463	0.975562072336266	0.975562072336266	0.985337243401760	1.00782013685240	1.05083088954057	1.11925708699902	1.21505376344086	1.33822091886608	1.48778103616813	1.65689149560117	1.81329423264907	1.96089931573803	2.12218963831867	2.27761485826002	2.41544477028348	2.53079178885631	2.61681329423265	2.67448680351906	2.70478983382209	2.71065493646139	2.69403714565005	2.65884652981427	2.60899315738025	2.55522971652004	2.49560117302053	2.42228739002933	2.33626588465298	2.24144672531769	2.14173998044966	2.04007820136852	1.93743890518084	1.83870967741935	1.74584555229717	1.65982404692082	1.58357771260997	1.52492668621701	1.48093841642229	1.43988269794721	1.40664711632454	1.38318670576735	1.37047898338221	1.36559139784946	1.36559139784946	1.36852394916911	1.37243401759531	1.37732160312805	1.38220918866080	1.38709677419355	1.39198435972630	1.39687194525904	1.40175953079179	1.40566959921799	1.40762463343109	1.40664711632454	1.40371456500489	1.39784946236559	1.38709677419355	1.37341153470186	1.35972629521017	1.34897360703812	1.34408602150538	1.33626588465298	1.32160312805474	1.30400782013685	1.28445747800587	1.26392961876833	1.24144672531769	1.21798631476051	1.19550342130987	1.17399804496579	1.15249266862170	1.13196480938416	1.11339198435973	1.10068426197458	1.09286412512219	1.08504398826979	1.07917888563050	1.07820136852395	1.08308895405670	1.09970674486804	1.13294232649071	1.18768328445748	1.26783968719453	1.37829912023460	1.51710654936461	1.65395894428153	1.79276637341153	1.95601173020528	2.12609970674487	2.29130009775171	2.44086021505376	2.56695992179863	2.66568914956012	2.73509286412512	2.77810361681329	2.79472140762463	2.78885630498534	2.76344086021505	2.72531769305963	2.67839687194526	2.61974584555230	2.55034213098729	2.47311827956989	2.38807429130010	2.29814271749756	2.20430107526882	2.10850439882698	2.01270772238514	1.92179863147605	1.83675464320626	1.76735092864125	1.71163245356794	1.65884652981427	1.61290322580645	1.57771260997067	1.55327468230694	1.53763440860215	1.53079178885631	1.53079178885631	1.53665689149560	1.54643206256109	1.55816226783969	1.57086999022483	1.58162267839687	1.59139784946237	1.60215053763441	1.61094819159335	1.61681329423265	1.62170087976540	1.62561094819159	1.62854349951124	1.62952101661779	1.62756598240469	1.62365591397849	1.61583577712610	1.60899315738025	1.60215053763441	1.59237536656891	1.58064516129032	1.56598240469208	1.54838709677419	1.52981427174976	1.51124144672532	1.49266862170088	1.47507331378299	1.45747800586510	1.43988269794721	1.42228739002933	1.40860215053763	1.39687194525904	1.38514173998045	1.37536656891496	1.36754643206256	1.36168132942326	1.35972629521017	1.36168132942326	1.36950146627566	1.38318670576735	1.40860215053763	1.45063538611926	1.50244379276637	1.56989247311828	1.66862170087977	1.79472140762463	1.94623655913979	2.11436950146628	2.28836754643206	2.45943304007820	2.61974584555230	2.76148582600196	2.87781036168133	2.96774193548387	3.02834799608993	3.05767350928641	3.06451612903226	3.05474095796676	3.02834799608993	2.98533724340176	2.92668621700880	2.85728250244379	2.77908113391984	2.69110459433040	2.59628543499511	2.49755620723363	2.39589442815249	2.30303030303030	2.21896383186706	2.13196480938416	2.04692082111437	1.96871945259042	1.89931573802542	1.83968719452590	1.79081133919844	1.75268817204301	1.72629521016618	1.71163245356794	1.70478983382209	1.70283479960899	1.70674486803519	1.71554252199414	1.72629521016618	1.73900293255132	1.75171065493646	1.76344086021505	1.77223851417400	1.78005865102639	1.78494623655914	1.78690127077224	1.78592375366569	1.78201368523949	1.77810361681329	1.77126099706745	1.76148582600196	1.74780058651026	1.73020527859238	1.71260997067449	1.69403714565005	1.67350928641251	1.65102639296188	1.62854349951124	1.60508308895406	1.58162267839687	1.56207233626588	1.54447702834800	1.52199413489736	1.49853372434018	1.47409579667644	1.45063538611926	1.42913000977517	1.40860215053763	1.39198435972630	1.38123167155425	1.37634408602151	1.37634408602151	1.38123167155425	1.39198435972630	1.41055718475073	1.44379276637341	1.49560117302053	1.56989247311828	1.66764418377322	1.78885630498534	1.92961876832845	2.08113391984360	2.23753665689150	2.38905180840665	2.52785923753666	2.63343108504399	2.71065493646139	2.77712609970675	2.82306940371457	2.84555229716520	2.84457478005865	2.82209188660802	2.78103616813294	2.72434017595308	2.65591397849462	2.57575757575758	2.48582600195503	2.38709677419355	2.29423264907136	2.20527859237537	2.10752688172043	2.00782013685240	1.90909090909091	1.81720430107527	1.73411534701857	1.66177908113392	1.60117302052786	1.55131964809384	1.51319648093842	1.48680351906158	1.47214076246334	1.46529814271750	1.46334310850440	1.46432062561095	1.46920821114370	1.47605083088954	1.48289345063539	1.48875855327468	1.49169110459433	1.49266862170088	1.49364613880743	1.49169110459433	1.48778103616813	1.48582600195503	1.48387096774194	1.47898338220919	1.47116324535679	1.45943304007820	1.44477028347996	1.42913000977517	1.41055718475073	1.39002932551320	1.36852394916911	1.34506353861193	1.31964809384164	1.29814271749756	1.27956989247312	1.25806451612903	1.23460410557185	1.21016617790811	1.18670576735093	1.16422287390029	1.14271749755621	1.12316715542522	1.10654936461388	1.09188660801564	1.07820136852395	1.06744868035191	1.06549364613881	1.07233626588465	1.09286412512219	1.13391984359726	1.19745845552297	1.27174975562072	1.36656891495601	1.49853372434018	1.65395894428153	1.82111436950147	1.98924731182796	2.14760508308895	2.27272727272727	2.37047898338221	2.45747800586510	2.52297165200391	2.56598240469208	2.58553274682307	2.58357771260997	2.56207233626588	2.52492668621701	2.47605083088954	2.41544477028348	2.34408602150538	2.26295210166178	2.18572825024438	2.10752688172043	2.01759530791789	1.92179863147605	1.82502443792766	1.73118279569892	1.64320625610948	1.56207233626588	1.49071358748778	1.42913000977517	1.37927663734115	1.34213098729228	1.31867057673509	1.30400782013685	1.29325513196481	1.28739002932551	1.28739002932551	1.29130009775171	1.29716520039101	1.30498533724340	1.31182795698925	1.31769305962854	1.32160312805474	1.32551319648094	1.32844574780059	1.33040078201369	1.33137829912023	1.32942326490714	1.32453567937439	1.31769305962854	1.30987292277615	1.30009775171066	1.28739002932551	1.27174975562072	1.25415444770283	1.23460410557185	1.21309872922776	1.19550342130987	1.17986314760508	1.16031280547410	1.13880742913001	1.11632453567937	1.09384164222874	1.07233626588465	1.05180840664712	1.03128054740958	1.01368523949169	0.999022482893451	0.988269794721408	0.982404692082112	0.983382209188661	0.989247311827957	1.00097751710655	1.02443792766373	1.06549364613881	1.12903225806452	1.21994134897361	1.34017595307918	1.48582600195503	1.65200391006843	1.82991202346041	2.00977517106549	2.15933528836755	2.28543499511241	2.40664711632454	2.50928641251222	2.58846529814272	2.64125122189638	2.66959921798631	2.67546432062561	2.66080156402737	2.63049853372434	2.58553274682307	2.52883675464321	2.46236559139785	2.39589442815249	2.32649071358749	2.24535679374389	2.15640273704790	2.06256109481916	1.96578690127077	1.86999022482893	1.77712609970674	1.69012707722385	1.61290322580645	1.54545454545455	1.49071358748778	1.45259042033236	1.42717497556207	1.40664711632454	1.39296187683284	1.38611925708700	1.38514173998045	1.38807429130010	1.39393939393939	1.40273704789834	1.41055718475073	1.41739980449658	1.42130987292278	1.42424242424242	1.42717497556207	1.42619745845552	1.42326490713588	1.41935483870968	1.41348973607038	1.40566959921799	1.39589442815249	1.38611925708700	1.37438905180841	1.36070381231672	1.34506353861193	1.32942326490714	1.31867057673509	1.30987292277615	1.29814271749756	1.28250244379277	1.26490713587488	1.24535679374389	1.22678396871945	1.20723362658847	1.18572825024438	1.16324535679374	1.13978494623656	1.11730205278592	1.10068426197458	1.08895405669599	1.07722385141740	1.06842619745846	1.06353861192571	1.06256109481916	1.06744868035191	1.08113391984360	1.10752688172043	1.15249266862170	1.22287390029326	1.32062561094819	1.44770283479961	1.57575757575758	1.71065493646139	1.87487781036168	2.05083088954057	2.22287390029326	2.38123167155425	2.51906158357771	2.63147605083089	2.71554252199413	2.77321603128055	2.80547409579668	2.81524926686217	2.80547409579668	2.78103616813294	2.74389051808407	2.69403714565005	2.63245356793744	2.56109481915934	2.48191593352884	2.39589442815249	2.30498533724340	2.21016617790811	2.11534701857283	2.02346041055718	1.93548387096774	1.86314760508309	1.80351906158358	1.74780058651026	1.69990224828935	1.66080156402737	1.63245356793744	1.61388074291300	1.60508308895406	1.60215053763441	1.60410557184751	1.60997067448680	1.61779081133920	1.62561094819159	1.63343108504399	1.64027370478983	1.64711632453568	1.65395894428153	1.66080156402737	1.66568914956012	1.66862170087977	1.66959921798631	1.67057673509286	1.66862170087977	1.66471163245357	1.65786901270772	1.64907135874878	1.64027370478983	1.62854349951124	1.61388074291300	1.59628543499511	1.57575757575758	1.55425219941349	1.53372434017595	1.51319648093842	1.49071358748778	1.46823069403715	1.44770283479961	1.43206256109482	1.41935483870968	1.40664711632454	1.39589442815249	1.38807429130010	1.38416422287390	1.38416422287390	1.39002932551320	1.39980449657869	1.41642228739003	1.44477028347996	1.48680351906158	1.54643206256109	1.61290322580645	1.69305962854350	1.80449657869013	1.93841642228739	2.08797653958944	2.24633431085044	2.40273704789834	2.54936461388074	2.67839687194526	2.78396871945259	2.86510263929619	2.91984359726295	2.94525904203324	2.94819159335288	2.93450635386119	2.90420332355816	2.85826001955034	2.79863147605083	2.72825024437928	2.64809384164223	2.56109481915934	2.46920821114370	2.37145650048876	2.27077223851417	2.17693059628544	2.09677419354839	2.02248289345064	1.94623655913979	1.87390029325513	1.81133919843597	1.76050830889541	1.71945259042033	1.69012707722385	1.67057673509286	1.66080156402737	1.65689149560117	1.65982404692082	1.66666666666667	1.67546432062561	1.68621700879765	1.69794721407625	1.71065493646139	1.72238514173998	1.73118279569892	1.73607038123167	1.73900293255132	1.73802541544477	1.73411534701857	1.72727272727273	1.71749755620723	1.70674486803519	1.69599217986315	1.68132942326491	1.66471163245357	1.64809384164223	1.63049853372434	1.61094819159335	1.58944281524927	1.56793743890518	1.54740957966764	1.52688172043011	1.50635386119257	1.48875855327468	1.47409579667644	1.45747800586510	1.43988269794721	1.42326490713588	1.40664711632454	1.39002932551320	1.37341153470186	1.35972629521017	1.34897360703812	1.34310850439883	1.34017595307918	1.34213098729228	1.35092864125122	1.36852394916911	1.40175953079179	1.45552297165200	1.53372434017595	1.63831867057674	1.76735092864125	1.91788856304985	2.07917888563050	2.24046920821114	2.39198435972630	2.52492668621701	2.62170087976540	2.68817204301075	2.74095796676442	2.77223851417400	2.78103616813294	2.76930596285435	2.73900293255132	2.69305962854350	2.63440860215054	2.56304985337243	2.48191593352884	2.39100684261975	2.29325513196481	2.20136852394917	2.11143695014663	2.01270772238514	1.91300097751711	1.81720430107527	1.72825024437928	1.65102639296188	1.58455522971652	1.52883675464321	1.48582600195503	1.45356793743891	1.43206256109482	1.42130987292278	1.41642228739003	1.41446725317693	1.41739980449658	1.42424242424242	1.43108504398827	1.43792766373412	1.44379276637341	1.44770283479961	1.44965786901271	1.45063538611926	1.44965786901271	1.44770283479961	1.44574780058651	1.44086021505376	1.43401759530792	1.42521994134897	1.41446725317693	1.39980449657869	1.38123167155425	1.36070381231672	1.34017595307918	1.31964809384164	1.29716520039101	1.27370478983382	1.25415444770283	1.23753665689150	1.21798631476051	1.19648093841642	1.17302052785924	1.14858260019550	1.12707722385142	1.10557184750733	1.08699902248289	1.07038123167155	1.05669599217986	1.04789833822092	1.04594330400782	1.05180840664712	1.06647116324536	1.09677419354839	1.14760508308895	1.22287390029326	1.32746823069404	1.45845552297165	1.61192570869990	1.78201368523949	1.95698924731183	2.12805474095797	2.28445747800587	2.40566959921799	2.49755620723363	2.57869012707722	2.64027370478983	2.67741935483871	2.69110459433040	2.68230694037146	2.65493646138807	2.61192570869990	2.55718475073314	2.49266862170088	2.41739980449658	2.34310850439883	2.26881720430108	2.18181818181818	2.08797653958944	1.99022482893451	1.89247311827957	1.79667644183773	1.70674486803519	1.62561094819159	1.55522971652004	1.49657869012708	1.44965786901271	1.41348973607038	1.39002932551320	1.37438905180841	1.36363636363636	1.35777126099707	1.35483870967742	1.35581622678397	1.35874877810362	1.36265884652981	1.36852394916911	1.37438905180841	1.37829912023460	1.38220918866080	1.38709677419355	1.39100684261975	1.39198435972630	1.39002932551320	1.38514173998045	1.37732160312805	1.36656891495601	1.35386119257087	1.33919843597263	1.32160312805474	1.30205278592375	1.28250244379277	1.26295210166178	1.24828934506354	1.23460410557185	1.21603128054741	1.19550342130987	1.17302052785924	1.14956011730205	1.12707722385142	1.10557184750733	1.08504398826979	1.06647116324536	1.05083088954057	1.03910068426197	1.03421309872923	1.03519061583578	1.04007820136852	1.05278592375367	1.07917888563050	1.12316715542522	1.19257086999022	1.28934506353861	1.41544477028348	1.56695992179863	1.73802541544477	1.92082111436950	2.10459433040078	2.25806451612903	2.38709677419355	2.51417399804497	2.62267839687195	2.70674486803519	2.76344086021505	2.79374389051808	2.80058651026393	2.78690127077224	2.75464320625611	2.70772238514174	2.65004887585533	2.58944281524927	2.52394916911046	2.44574780058651	2.35777126099707	2.26197458455523	2.16226783968719	2.06060606060606	1.96089931573803	1.86608015640274	1.77712609970674	1.69696969696970	1.62658846529814	1.56695992179863	1.52297165200391	1.48973607038123	1.46236559139785	1.44477028347996	1.43597262952102	1.43304007820137	1.43499511241447	1.43988269794721	1.44574780058651	1.45161290322581	1.45552297165200	1.45747800586510	1.45845552297165	1.46041055718475	1.46138807429130	1.46138807429130	1.46041055718475	1.45650048875855	1.45650048875855	1.45747800586510	1.45063538611926	1.43890518084066	1.42424242424242	1.40664711632454	1.38514173998045	1.36754643206256	1.35190615835777	1.33137829912023	1.30791788856305	1.28054740957967	1.25317693059629	1.22678396871945	1.20039100684262	1.17399804496579	1.14858260019550	1.12609970674487	1.10752688172043	1.09579667644184	1.08895405669599	1.08211143695015	1.07624633431085	1.07624633431085	1.08602150537634	1.10752688172043	1.14662756598240	1.20821114369501	1.30009775171066	1.42424242424242	1.57869012707722	1.75855327468231	1.92766373411535	2.09286412512219	2.27956989247312	2.46627565982405	2.63831867057674	2.78494623655914	2.90127077223851	2.98631476050831	3.04007820136852	3.06549364613881	3.06647116324536	3.04692082111437	3.01173020527859	2.96578690127077	2.90909090909091	2.84066471163245	2.76050830889541	2.66959921798631	2.57086999022483	2.46725317693060	2.36070381231672	2.25415444770284	2.15151515151515	2.05474095796676	1.97458455522972	1.90713587487781	1.84261974584555	1.78592375366569	1.73998044965787	1.70576735092864	1.68328445747801	1.67057673509286	1.66471163245357	1.66568914956012	1.67155425219941	1.68035190615836	1.69110459433040	1.70087976539589	1.70967741935484	1.72043010752688	1.73118279569892	1.74095796676442	1.74877810361681	1.75464320625611	1.75659824046921	1.75464320625611	1.75073313782991	1.74486803519062	1.73607038123167	1.72629521016618	1.71554252199414	1.70185728250244	1.68621700879765	1.66862170087977	1.65004887585533	1.62854349951124	1.60508308895406	1.58260019550342	1.56011730205279	1.53763440860215	1.51515151515152	1.49364613880743	1.47800586510264	1.46432062561095	1.44868035190616	1.43401759530792	1.42326490713588	1.41739980449658	1.41544477028348	1.41739980449658	1.42326490713588	1.43890518084066	1.46725317693060	1.51221896383187	1.56598240469208	1.63734115347019	1.74291300097752	1.87878787878788	2.04007820136852	2.21994134897361	2.40762463343109	2.59139784946237	2.76148582600196	2.91104594330401	3.03225806451613	3.12218963831867	3.17986314760508	3.20527859237537	3.20527859237537	3.18768328445748	3.15151515151515	3.09775171065494	3.03030303030303	2.95014662756598	2.85923753665689	2.76050830889541	2.65395894428153	2.54252199413490	2.42913000977517	2.32746823069404	2.23362658846530	2.13587487781036	2.04203323558162	1.95698924731183	1.88269794721408	1.82111436950147	1.77126099706745	1.73411534701857	1.70869990224829	1.69403714565005	1.68914956011730	1.69012707722385	1.69305962854350	1.69794721407625	1.70478983382209	1.71260997067449	1.72043010752688	1.72727272727273	1.73313782991202	1.73607038123167	1.73607038123167	1.73411534701857	1.72922776148583	1.72043010752688	1.71065493646139	1.70185728250244	1.69012707722385	1.67448680351906	1.65786901270772	1.63929618768328	1.61974584555230	1.59921798631476	1.57771260997067	1.55620723362659	1.53372434017595	1.51124144672532	1.48778103616813	1.46823069403715	1.44965786901271	1.42717497556207	1.40273704789834	1.37829912023460	1.35483870967742	1.33040078201369	1.30694037145650	1.28543499511241	1.26588465298143	1.25024437927664	1.24144672531769	1.23949169110459	1.24633431085044	1.26686217008798	1.30596285434995	1.36754643206256	1.45552297165200	1.57282502443793	1.71847507331378	1.88563049853372	2.06549364613881	2.24731182795699	2.42228739002933	2.57966764418377	2.69794721407625	2.78396871945259	2.85630498533724	2.90518084066471	2.92864125122190	2.92668621700880	2.90029325513197	2.85337243401760	2.78983382209189	2.71260997067449	2.62463343108504	2.52688172043011	2.43206256109482	2.33626588465298	2.22678396871945	2.11143695014663	1.99608993157380	1.88465298142718	1.78201368523949	1.69110459433040	1.61192570869990	1.54545454545455	1.49266862170088	1.45454545454545	1.42815249266862	1.41348973607038	1.40566959921799	1.40175953079179	1.40175953079179	1.40469208211144	1.41055718475073	1.41739980449658	1.42228739002933	1.42717497556207	1.43108504398827	1.43304007820137	1.43206256109482	1.43108504398827	1.42717497556207	1.42033235581623	1.41055718475073	1.39882697947214	1.38318670576735	1.36559139784946	1.34408602150538	1.31964809384164	1.29227761485826	1.26490713587488	1.23753665689150	1.21114369501466	1.19061583577713	1.17302052785924	1.15053763440860	1.12707722385142	1.10459433040078	1.08211143695015	1.05962854349951	1.03714565004888	1.01759530791789	1.00195503421310	0.989247311827957	0.978494623655914	0.984359726295210	1.00195503421310	1.02052785923754	1.04985337243402	1.09677419354839	1.16911045943304	1.26979472140762	1.39882697947214	1.55327468230694	1.72434017595308	1.90322580645161	2.08015640273705	2.24535679374389	2.37341153470186	2.47311827956989	2.56207233626588	2.63049853372434	2.67448680351906	2.69403714565005	2.69110459433040	2.66862170087977	2.63147605083089	2.58162267839687	2.52199413489736	2.45356793743891	2.38611925708700	2.31671554252199	2.23460410557185	2.14467253176931	2.04887585532747	1.95014662756598	1.85337243401760	1.76148582600196	1.67644183773216	1.60019550342131	1.53372434017595	1.47898338220919	1.43890518084066	1.41153470185728	1.39002932551320	1.37438905180841	1.36656891495601	1.36265884652981	1.36265884652981	1.36461388074291	1.36852394916911	1.37341153470186	1.37829912023460	1.38220918866080	1.38514173998045	1.38905180840665	1.39198435972630	1.39198435972630	1.39002932551320	1.38514173998045	1.37732160312805	1.36754643206256	1.35483870967742	1.34115347018573	1.32844574780059	1.31378299120235	1.29618768328446	1.28152492668622	1.26783968719453	1.24926686217009	1.22776148582600	1.20332355816227	1.17595307917889	1.14858260019550	1.12316715542522	1.10068426197458	1.08113391984360	1.06353861192571	1.04985337243402	1.04007820136852	1.03616813294233	1.03616813294233	1.03714565004888	1.04203323558162	1.05767350928641	1.08993157380254	1.14271749755621	1.22189638318671	1.33040078201369	1.46725317693060	1.62756598240469	1.80547409579668	1.96578690127077	2.11339198435973	2.27077223851417	2.42033235581623	2.55034213098729	2.65395894428153	2.72825024437928	2.77321603128055	2.79276637341154	2.78885630498534	2.76637341153470	2.72825024437928	2.67644183773216	2.62170087976540	2.56109481915934	2.48778103616813	2.40371456500489	2.31280547409580	2.21603128054741	2.11730205278592	2.01759530791789	1.91984359726295	1.82502443792766	1.73607038123167	1.65493646138807	1.59237536656891	1.54349951124145	1.49853372434018	1.46236559139785	1.43695014662757	1.42228739002933	1.41544477028348	1.41544477028348	1.42033235581623	1.42717497556207	1.43304007820137	1.43792766373412	1.44086021505376	1.44281524926686	1.44281524926686	1.44086021505376	1.43792766373412	1.43499511241447	1.43206256109482	1.42815249266862	1.42130987292278	1.41348973607038	1.40469208211144	1.39393939393939	1.38025415444770	1.36852394916911	1.35679374389052	1.34115347018573	1.32355816226784	1.30498533724340	1.28543499511241	1.26490713587488	1.24340175953079	1.22091886608016	1.19843597262952	1.17497556207234	1.15151515151515	1.13000977517107	1.11436950146628	1.10361681329423	1.09286412512219	1.08406647116325	1.07820136852395	1.07624633431085	1.07820136852395	1.08797653958944	1.10850439882698	1.14565004887586	1.20527859237537	1.29032258064516	1.38611925708700	1.49755620723363	1.64418377321603	1.81427174975562	1.99608993157380	2.17790811339198	2.34897360703812	2.50048875855327	2.62658846529814	2.72434017595308	2.79374389051808	2.83479960899316	2.85141739980450	2.84750733137830	2.82795698924731	2.79472140762463	2.74877810361681	2.69110459433040	2.62365591397849	2.54838709677419	2.46529814271750	2.37536656891496	2.27956989247312	2.17986314760508	2.08113391984360	1.99511241446725	1.91984359726295	1.84457478005865	1.77517106549365	1.71554252199414	1.66666666666667	1.62854349951124	1.60215053763441	1.58651026392962	1.57966764418377	1.57966764418377	1.58553274682307	1.59433040078201	1.60410557184751	1.61388074291300	1.62463343108504	1.63343108504399	1.64125122189638	1.64711632453568	1.65102639296188	1.65298142717498	1.65298142717498	1.65102639296188	1.64711632453568	1.64125122189638	1.63440860215054	1.62854349951124	1.62072336265885	1.60997067448680	1.59628543499511	1.58162267839687	1.56500488758553	1.54643206256109	1.52785923753666	1.50830889540567	1.48778103616813	1.46725317693060	1.44672531769306	1.43108504398827	1.41837732160313	1.40371456500489	1.38807429130010	1.37243401759531	1.35972629521017	1.34995112414467	1.34408602150538	1.34310850439883	1.34701857282502	1.35777126099707	1.37927663734115	1.40762463343109	1.44672531769306	1.51026392961877	1.59824046920821	1.71065493646139	1.84750733137830	2.00293255131965	2.16813294232649	2.33528836754643	2.49560117302053	2.64125122189638	2.76344086021505	2.86021505376344	2.92082111436950	2.95210166177908	2.96676441837732	2.96285434995112	2.94037145650049	2.90224828934506	2.85239491691105	2.79081133919844	2.71652003910068	2.63147605083089	2.53665689149560	2.43499511241447	2.33919843597263	2.24926686217009	2.15249266862170	2.05376344086022	1.95992179863148	1.87487781036168	1.80058651026393	1.73802541544477	1.68817204301075	1.65004887585533	1.62463343108504	1.60899315738025	1.60117302052786	1.60019550342131	1.60410557184751	1.61388074291300	1.62561094819159	1.63831867057674	1.65102639296188	1.66275659824047	1.67155425219941	1.67937438905181	1.68523949169110	1.68719452590420	1.68523949169110	1.68132942326491	1.67448680351906	1.66471163245357	1.65298142717498	1.63929618768328	1.62463343108504	1.60899315738025	1.59237536656891	1.57478005865103	1.55522971652004	1.53567937438905	1.51612903225806	1.50048875855327	1.48680351906158	1.46920821114370	1.45161290322581	1.43401759530792	1.41642228739003	1.39784946236559	1.37829912023460	1.35972629521017	1.34310850439883	1.32746823069404	1.31476050830890	1.30498533724340	1.30009775171066	1.29814271749756	1.29912023460411	1.30498533724340	1.31867057673509	1.34310850439883	1.38318670576735	1.44281524926686	1.52590420332356	1.63440860215054	1.76735092864125	1.91886608015640	2.05767350928641	2.18866080156403	2.33235581622678	2.47214076246334	2.59530791788856	2.69599217986315	2.76930596285435	2.81427174975562	2.83382209188661	2.82893450635386	2.80254154447703	2.75659824046921	2.69403714565005	2.62756598240469	2.55620723362659	2.47214076246334	2.37732160312806	2.27663734115347	2.17204301075269	2.06549364613881	1.95992179863148	1.85728250244379	1.76148582600196	1.67448680351906	1.59921798631476	1.54252199413490	1.49853372434018	1.45845552297165	1.42913000977517	1.40860215053763	1.39589442815249	1.39002932551320	1.38905180840665	1.39296187683284	1.39980449657869	1.40860215053763	1.41739980449658	1.42326490713588	1.42717497556207	1.43010752688172	1.43010752688172	1.42913000977517	1.42619745845552	1.42228739002933	1.41446725317693	1.40371456500489	1.39002932551320	1.37341153470186	1.35483870967742	1.33528836754643	1.31964809384164	1.30498533724340	1.28543499511241	1.26197458455523	1.23851417399805	1.21407624633431	1.18768328445748	1.16031280547410	1.13294232649071	1.10850439882698	1.08602150537634	1.06451612903226	1.04496578690127	1.03128054740958	1.02346041055718	1.01564027370479	1.01270772238514	1.01564027370479	1.02737047898338	1.05474095796676	1.10263929618768	1.17693059628544	1.27859237536657	1.40762463343109	1.56109481915934	1.70772238514174	1.85043988269795	2.01075268817204	2.17106549364614	2.31867057673509	2.44477028347996	2.54349951124145	2.61290322580645	2.65395894428153	2.66862170087977	2.65982404692082	2.63245356793744	2.58944281524927	2.53958944281525	2.48387096774194	2.41544477028348	2.33724340175953	2.25024437927664	2.15542521994135	2.05571847507331	1.95405669599218	1.85434995112414	1.75855327468231	1.66862170087977	1.58651026392962	1.52101661779081	1.47018572825024	1.42326490713588	1.38318670576735	1.35190615835777	1.33137829912023	1.32062561094819	1.31671554252199	1.31769305962854	1.32258064516129	1.32942326490714	1.33626588465298	1.34213098729228	1.34701857282502	1.35190615835777	1.35679374389052	1.35972629521017	1.36070381231672	1.35777126099707	1.35288367546432	1.34506353861193	1.33724340175953	1.32942326490714	1.32062561094819	1.30987292277615	1.30107526881720	1.29227761485826	1.27761485826002	1.25904203323558	1.23851417399805	1.21700879765396	1.19648093841642	1.17595307917889	1.15347018572825	1.13196480938416	1.11045943304008	1.08895405669599	1.06744868035191	1.05278592375367	1.04301075268817	1.03225806451613	1.02346041055718	1.01955034213099	1.01955034213099	1.02541544477028	1.04203323558162	1.07429130009775	1.12707722385142	1.20527859237537	1.31280547409580	1.42815249266862	1.55522971652004	1.71652003910068	1.89540566959922	2.08015640273705	2.25806451612903	2.41935483870968	2.55620723362659	2.66275659824047	2.73802541544477	2.78396871945259	2.80351906158358	2.79960899315738	2.77810361681329	2.74291300097752	2.69403714565005	2.63343108504399	2.56304985337243	2.48289345063539	2.39491691104594	2.29912023460411	2.19843597262952	2.09677419354839	1.99511241446725	1.89540566959922	1.81036168132942	1.73802541544477	1.66666666666667	1.60117302052786	1.54447702834800	1.49755620723363	1.46138807429130	1.43597262952102	1.42130987292278	1.41446725317693	1.41348973607038	1.41739980449658	1.42326490713588	1.43597262952102	1.45259042033236	1.46432062561095	1.47116324535679	1.47311827956989	1.47116324535679	1.46725317693060	1.46236559139785	1.45747800586510	1.45063538611926	1.44183773216031	1.43206256109482	1.42326490713588	1.41348973607038	1.39980449657869	1.38416422287390	1.36754643206256	1.35190615835777	1.33528836754643	1.31867057673509	1.29912023460411	1.27859237536657	1.25904203323558	1.23851417399805	1.22091886608016	1.20430107526882	1.18377321603128	1.16226783968719	1.14173998044966	1.12316715542522	1.10654936461388	1.09090909090909	1.07820136852395	1.06940371456500	1.06647116324536	1.07038123167155	1.08406647116325	1.10752688172043	1.14565004887586	1.20821114369501	1.29912023460411	1.42033235581623	1.57184750733138	1.74780058651026	1.94134897360704	2.14076246334311	2.33333333333333	2.50928641251222	2.65982404692082	2.76832844574780	2.84457478005865	2.90420332355816	2.94037145650049	2.95210166177908	2.93939393939394	2.90615835777126	2.85630498533724	2.79374389051808	2.72043010752688	2.63636363636364	2.54349951124145	2.44281524926686	2.34897360703812	2.25806451612903	2.15640273704790	2.04985337243402	1.94428152492669	1.84359726295210	1.75171065493646	1.67057673509286	1.60312805474096	1.54936461388074	1.50830889540567	1.47898338220919	1.46334310850440	1.45650048875855	1.45356793743891	1.45356793743891	1.45650048875855	1.46138807429130	1.46725317693060	1.47311827956989	1.47702834799609	1.47898338220919	1.47996089931574	1.47996089931574	1.47702834799609	1.47409579667644	1.47018572825024	1.46432062561095	1.45747800586510	1.44868035190616	1.43792766373412	1.42424242424242	1.40762463343109	1.38807429130010	1.36656891495601	1.34506353861193	1.32355816226784	1.30596285434995	1.29032258064516	1.26881720430108	1.24437927663734	1.21896383186706	1.19159335288368	1.16422287390029	1.13782991202346	1.11436950146628	1.09579667644184	1.08211143695015	1.07331378299120	1.07038123167155	1.07331378299120	1.08015640273705	1.09286412512219	1.11436950146628	1.15053763440860	1.20821114369501	1.29227761485826	1.40762463343109	1.55327468230694	1.72336265884653	1.91202346041056	2.10752688172043	2.27468230694037	2.41935483870968	2.56598240469208	2.69599217986315	2.79960899315738	2.87390029325513	2.92082111436950	2.93841642228739	2.93059628543500	2.90127077223851	2.85434995112415	2.79178885630499	2.71749755620723	2.64320625610948	2.56500488758553	2.47311827956989	2.37341153470186	2.26979472140763	2.16324535679374	2.05865102639296	1.95796676441838	1.86314760508309	1.77908113391984	1.70869990224829	1.65200391006843	1.61192570869990	1.58651026392962	1.57184750733138	1.56500488758553	1.56402737047898	1.56793743890518	1.57673509286413	1.58846529814272	1.60410557184751	1.61876832844575	1.63147605083089	1.64320625610948	1.65298142717498	1.65884652981427	1.66373411534702	1.66666666666667	1.66568914956012	1.66373411534702	1.66080156402737	1.65689149560117	1.65004887585533	1.64125122189638	1.63147605083089	1.62072336265885	1.60703812316716	1.59433040078201	1.58260019550342	1.56891495601173	1.55229716520039	1.53274682306940	1.51221896383187	1.49169110459433	1.47116324535679	1.45063538611926	1.43108504398827	1.41055718475073	1.38905180840665	1.37047898338221	1.35777126099707	1.34897360703812	1.34310850439883	1.34115347018573	1.34213098729228	1.34506353861193	1.35190615835777	1.36461388074291	1.38709677419355	1.42521994134897	1.48387096774194	1.56695992179863	1.65689149560117	1.76246334310850	1.90224828934506	2.06647116324536	2.24437927663734	2.42326490713588	2.59335288367546	2.74584555229717	2.87390029325513	2.97262952101662	3.04105571847507	3.08015640273705	3.09188660801564	3.07917888563050	3.04692082111437	2.99902248289345	2.93646138807429	2.86217008797654	2.77810361681329	2.68523949169110	2.58260019550342	2.47311827956989	2.36070381231672	2.24731182795699	2.13782991202346	2.04594330400782	1.96578690127077	1.88660801564027	1.81622678396872	1.75562072336266	1.70772238514174	1.67155425219941	1.64516129032258	1.62952101661779	1.62365591397849	1.62561094819159	1.63440860215054	1.64613880742913	1.65982404692082	1.67546432062561	1.69110459433040	1.70576735092864	1.71847507331378	1.72727272727273	1.73313782991202	1.73607038123167	1.73607038123167	1.73313782991202	1.72825024437928	1.72043010752688	1.71163245356794	1.70185728250244	1.68914956011730	1.67350928641251	1.65591397849462	1.63538611925709	1.61290322580645	1.57086999022483	1.52003910068426	1.48289345063539	1.45356793743891	1.42619745845552	1.40469208211144	1.38611925708700	1.36461388074291	1.34213098729228	1.31964809384164	1.29912023460411	1.28250244379277	1.26686217008798	1.25415444770283	1.24535679374389	1.24242424242424	1.24340175953079	1.24926686217009	1.25904203323558	1.27565982404692	1.30400782013685	1.35092864125122	1.42033235581623	1.51612903225806	1.63734115347019	1.78005865102639	1.93939393939394	2.10557184750733	2.26783968719453	2.41837732160313	2.53470185728250	2.62267839687195	2.69892473118280	2.75366568914956	2.78396871945259	2.79178885630499	2.77517106549365	2.73802541544477	2.68328445747801	2.61192570869990	2.52883675464321	2.43597262952102	2.33528836754643	2.24144672531769	2.14956011730205	2.04692082111437	1.94037145650049	1.83479960899316	1.73509286412512	1.64320625610948	1.56304985337243	1.49560117302053	1.43988269794721	1.39784946236559	1.36950146627566	1.35483870967742	1.34897360703812	1.34995112414467	1.35679374389052	1.36656891495601	1.37829912023460	1.39002932551320	1.39882697947214	1.40566959921799	1.41055718475073	1.41153470185728	1.40957966764418	1.40566959921799	1.40175953079179	1.39589442815249	1.38709677419355	1.37732160312805	1.36559139784946	1.35092864125122	1.33333333333333	1.31182795698925	1.28641251221896	1.26001955034213	1.23264907135875	1.20625610948192	1.18572825024438	1.16911045943304	1.14858260019550	1.12609970674487	1.10068426197458	1.07429130009775	1.04985337243402	1.02639296187683	1.00488758553275	0.984359726295210	0.966764418377322	0.954056695992180	0.946236559139785	0.945259042033236	0.951124144672532	0.963831867057674	0.990224828934506	1.03910068426197	1.11632453567937	1.22287390029326	1.35874877810362	1.51906158357771	1.69794721407625	1.88367546432063	2.06647116324536	2.21603128054741	2.33822091886608	2.45454545454545	2.55034213098729	2.62072336265885	2.66275659824047	2.67741935483871	2.66862170087977	2.63831867057674	2.59042033235582	2.52883675464321	2.45747800586510	2.37634408602151	2.29716520039101	2.21603128054741	2.12316715542522	2.02346041055718	1.91984359726295	1.81720430107527	1.71749755620723	1.62463343108504	1.53958944281525	1.46529814271750	1.40175953079179	1.34897360703812	1.31280547409580	1.29130009775171	1.27761485826002	1.27077223851417	1.26979472140762	1.27370478983382	1.28054740957967	1.28934506353861	1.29912023460411	1.30791788856305	1.31378299120235	1.31867057673509	1.32062561094819	1.32160312805474	1.32258064516129	1.32062561094819	1.31671554252199	1.30889540566960	1.29912023460411	1.28739002932551	1.27468230694037	1.26099706744868	1.24633431085044	1.22971652003910	1.21114369501466	1.19550342130987	1.18181818181818	1.16324535679374	1.14173998044966	1.11827956989247	1.09384164222874	1.06842619745846	1.04301075268817	1.01759530791789	0.995112414467253	0.974584555229717	0.958944281524927	0.951124144672532	0.948191593352884	0.945259042033236	0.944281524926686	0.949169110459433	0.963831867057674	0.992179863147605	1.04105571847507	1.11632453567937	1.22091886608016	1.35679374389052	1.52003910068426	1.70381231671554	1.86999022482893	2.02443792766373	2.19354838709677	2.35679374389052	2.49951124144673	2.61583577712610	2.70381231671554	2.76050830889541	2.78787878787879	2.78787878787879	2.76637341153470	2.72727272727273	2.67839687194526	2.62267839687195	2.55522971652004	2.47800586510264	2.39198435972630	2.29716520039101	2.19648093841642	2.09188660801564	1.98533724340176	1.87976539589443	1.77908113391984	1.68719452590420	1.60703812316716	1.54545454545455	1.49853372434018	1.45552297165200	1.41935483870968	1.39393939393939	1.37732160312805	1.36852394916911	1.36559139784946	1.36852394916911	1.37438905180841	1.38025415444770	1.38709677419355	1.39393939393939	1.39980449657869	1.40273704789834	1.40273704789834	1.39980449657869	1.39491691104594	1.39002932551320	1.38514173998045	1.37829912023460	1.36950146627566	1.35972629521017	1.34799608993157	1.33333333333333	1.32062561094819	1.30987292277615	1.29521016617791	1.27859237536657	1.26001955034213	1.24046920821114	1.22091886608016	1.20136852394917	1.18084066471163	1.15933528836755	1.13587487781036	1.11241446725318	1.09384164222874	1.07820136852395	1.05962854349951	1.04203323558162	1.02737047898338	1.01564027370479	1.00782013685240	1.00488758553275	1.00782013685240	1.02052785923754	1.04692082111437	1.09188660801564	1.16129032258065	1.24144672531769	1.36461388074291	1.54056695992180	1.73020527859238	1.93157380254154	2.13880742913001	2.34017595307918	2.52492668621701	2.68523949169110	2.81524926686217	2.91300097751711	2.97751710654936	3.00782013685240	3.01075268817204	2.99608993157380	2.96383186705767	2.91593352883675	2.85532746823069	2.78103616813294	2.69599217986315	2.60215053763441	2.50048875855327	2.39198435972630	2.27956989247312	2.16617790811339	2.06549364613881	1.97458455522972	1.87976539589443	1.78983382209189	1.70772238514174	1.63831867057674	1.58260019550342	1.53861192570870	1.50830889540567	1.49169110459433	1.48289345063539	1.47996089931574	1.48093841642229	1.48484848484848	1.49071358748778	1.49755620723363	1.50439882697947	1.51124144672532	1.51906158357771	1.52492668621701	1.52785923753666	1.52883675464321	1.52785923753666	1.52297165200391	1.51710654936461	1.51124144672532	1.50342130987292	1.49266862170088	1.47898338220919	1.46236559139785	1.44477028347996	